Pixel,Wavelength,Wavenumber,Raman Shift,Dark,Raw data #1,Dark Subtracted #1
34,533.81,18733.31,63.69,2611,7046,4435
35,533.86,18731.36,65.63,3609,8501,4892
36,533.92,18729.41,67.58,3053,8468,5415
37,533.98,18727.47,69.53,3360,9358,5998
38,534.03,18725.52,71.47,3076,9528,6452
39,534.09,18723.58,73.42,3045,10354,7309
40,534.14,18721.63,75.36,2995,10709,7714
41,534.2,18719.69,77.3,3079,11188,8109
42,534.25,18717.74,79.25,3344,12356,9012
43,534.31,18715.8,81.19,2613,12299,9686
44,534.36,18713.86,83.13,2813,13003,10190
45,534.42,18711.92,85.08,3019,14014,10995
46,534.47,18709.98,87.02,3333,14788,11455
47,534.53,18708.04,88.96,3738,16151,12413
48,534.59,18706.1,90.9,3262,16458,13196
49,534.64,18704.16,92.84,2641,16678,14037
50,534.7,18702.22,94.78,2958,17465,14507
51,534.75,18700.28,96.71,2691,17710,15019
52,534.81,18698.34,98.65,2558,17945,15387
53,534.86,18696.4,100.59,2801,18484,15683
54,534.92,18694.47,102.53,2720,19137,16417
55,534.97,18692.53,104.46,2929,19965,17036
56,535.03,18690.59,106.4,3605,21419,17814
57,535.08,18688.66,108.33,3111,21361,18250
58,535.14,18686.72,110.27,4014,21947,17933
59,535.19,18684.79,112.2,3929,22171,18242
60,535.25,18682.86,114.14,3931,21761,17830
61,535.31,18680.92,116.07,3260,21121,17861
62,535.36,18678.99,118,3450,21545,18095
63,535.42,18677.06,119.93,3363,21533,18170
64,535.47,18675.13,121.87,2811,21120,18309
65,535.53,18673.2,123.8,2939,21119,18180
66,535.58,18671.27,125.73,3432,21444,18012
67,535.64,18669.34,127.66,3140,21030,17890
68,535.69,18667.41,129.59,2659,20654,17995
69,535.75,18665.48,131.52,3235,21454,18219
70,535.8,18663.55,133.44,2733,20803,18070
71,535.86,18661.62,135.37,3051,21086,18035
72,535.91,18659.69,137.3,3174,21124,17950
73,535.97,18657.77,139.22,2523,20887,18364
74,536.03,18655.84,141.15,3479,21860,18381
75,536.08,18653.92,143.08,2757,21168,18411
76,536.14,18651.99,145,2806,20517,17711
77,536.19,18650.07,146.93,3028,20818,17790
78,536.25,18648.14,148.85,3081,20703,17622
79,536.3,18646.22,150.77,2487,20544,18057
80,536.36,18644.3,152.7,2485,20218,17733
81,536.41,18642.37,154.62,2688,20564,17876
82,536.47,18640.45,156.54,3192,21193,18001
83,536.52,18638.53,158.46,4017,22263,18246
84,536.58,18636.61,160.38,3158,21488,18330
85,536.63,18634.69,162.3,3338,21229,17891
86,536.69,18632.77,164.22,3484,21342,17858
87,536.74,18630.85,166.14,3144,20912,17768
88,536.8,18628.93,168.06,3124,21155,18031
89,536.85,18627.02,169.98,7199,25445,18246
90,536.91,18625.1,171.89,3183,21550,18367
91,536.97,18623.18,173.81,2948,21516,18568
92,537.02,18621.27,175.73,3559,21802,18243
93,537.08,18619.35,177.64,3163,20753,17590
94,537.13,18617.43,179.56,2841,20891,18050
95,537.19,18615.52,181.47,2910,21022,18112
96,537.24,18613.61,183.39,3241,21573,18332
97,537.3,18611.69,185.3,3054,21530,18476
98,537.35,18609.78,187.21,2441,21053,18612
99,537.41,18607.87,189.13,2646,20994,18348
100,537.46,18605.96,191.04,3065,21336,18271
101,537.52,18604.04,192.95,3365,21224,17859
102,537.57,18602.13,194.86,3361,21785,18424
103,537.63,18600.22,196.77,2718,21206,18488
104,537.68,18598.31,198.68,2838,21293,18455
105,537.74,18596.4,200.59,2655,21411,18756
106,537.79,18594.49,202.5,3566,22043,18477
107,537.85,18592.59,204.41,2768,21200,18432
108,537.9,18590.68,206.31,3360,22190,18830
109,537.96,18588.77,208.22,3270,22190,18920
110,538.01,18586.87,210.13,3123,21819,18696
111,538.07,18584.96,212.03,3199,22059,18860
112,538.12,18583.05,213.94,3046,21764,18718
113,538.18,18581.15,215.84,2992,21901,18909
114,538.24,18579.24,217.75,2831,21827,18996
115,538.29,18577.34,219.65,3346,22125,18779
116,538.35,18575.44,221.56,2943,21807,18864
117,538.4,18573.53,223.46,2961,22039,19078
118,538.46,18571.63,225.36,3199,22407,19208
119,538.51,18569.73,227.26,3013,21830,18817
120,538.57,18567.83,229.16,3206,22101,18895
121,538.62,18565.93,231.06,2903,22251,19348
122,538.68,18564.03,232.96,3154,22249,19095
123,538.73,18562.13,234.86,2463,21678,19215
124,538.79,18560.23,236.76,3342,22749,19407
125,538.84,18558.33,238.66,3766,23185,19419
126,538.9,18556.43,240.56,2908,22130,19222
127,538.95,18554.54,242.46,2896,21986,19090
128,539.01,18552.64,244.35,3091,22472,19381
129,539.06,18550.74,246.25,3793,23116,19323
130,539.12,18548.85,248.15,3275,22454,19179
131,539.17,18546.95,250.04,3852,23497,19645
132,539.23,18545.06,251.94,3568,23196,19628
133,539.28,18543.16,253.83,3575,23163,19588
134,539.34,18541.27,255.72,3354,22744,19390
135,539.39,18539.37,257.62,2923,22743,19820
136,539.45,18537.48,259.51,3049,22774,19725
137,539.5,18535.59,261.4,3284,23288,20004
138,539.56,18533.7,263.29,2987,22803,19816
139,539.61,18531.81,265.18,3432,23342,19910
140,539.67,18529.92,267.08,3514,23293,19779
141,539.72,18528.03,268.97,2310,22154,19844
142,539.78,18526.14,270.85,3110,23004,19894
143,539.83,18524.25,272.74,2854,22374,19520
144,539.89,18522.36,274.63,3068,23129,20061
145,539.94,18520.47,276.52,3458,23296,19838
146,540,18518.59,278.41,3042,23108,20066
147,540.05,18516.7,280.29,3390,23559,20169
148,540.11,18514.81,282.18,3314,23573,20259
149,540.16,18512.93,284.07,3341,23328,19987
150,540.22,18511.04,285.95,3034,23438,20404
151,540.27,18509.16,287.84,3483,23863,20380
152,540.33,18507.27,289.72,3144,23056,19912
153,540.38,18505.39,291.6,2760,23193,20433
154,540.44,18503.51,293.49,3051,23051,20000
155,540.49,18501.62,295.37,2910,23188,20278
156,540.55,18499.74,297.25,3123,23346,20223
157,540.6,18497.86,299.13,2790,23149,20359
158,540.66,18495.98,301.01,2626,23341,20715
159,540.71,18494.1,302.89,2991,23433,20442
160,540.77,18492.22,304.77,2889,23354,20465
161,540.82,18490.34,306.65,3391,23859,20468
162,540.88,18488.46,308.53,2624,23496,20872
163,540.93,18486.58,310.41,2806,23579,20773
164,540.99,18484.7,312.29,2748,23525,20777
165,541.04,18482.83,314.16,2732,23806,21074
166,541.1,18480.95,316.04,2624,23229,20605
167,541.15,18479.07,317.92,3211,24070,20859
168,541.21,18477.2,319.79,3099,24142,21043
169,541.26,18475.32,321.67,2191,23087,20896
170,541.32,18473.45,323.54,3217,24073,20856
171,541.37,18471.58,325.42,3051,24039,20988
172,541.43,18469.7,327.29,2956,24309,21353
173,541.48,18467.83,329.16,3298,24452,21154
174,541.54,18465.96,331.04,3199,24458,21259
175,541.59,18464.08,332.91,2959,24372,21413
176,541.65,18462.21,334.78,3195,24561,21366
177,541.7,18460.34,336.65,3158,24574,21416
178,541.76,18458.47,338.52,2884,24717,21833
179,541.81,18456.6,340.39,2710,24792,22082
180,541.87,18454.73,342.26,3657,24671,21014
181,541.92,18452.86,344.13,3608,25187,21579
182,541.98,18451,346,3339,24820,21481
183,542.03,18449.13,347.86,2910,24455,21545
184,542.09,18447.26,349.73,3055,24786,21731
185,542.14,18445.39,351.6,2782,24467,21685
186,542.2,18443.53,353.46,2670,24188,21518
187,542.25,18441.66,355.33,2556,24055,21499
188,542.31,18439.8,357.19,3080,24653,21573
189,542.36,18437.93,359.06,2394,24301,21907
190,542.41,18436.07,360.92,2795,24884,22089
191,542.47,18434.21,362.79,2991,25015,22024
192,542.52,18432.34,364.65,2827,24509,21682
193,542.58,18430.48,366.51,3177,25214,22037
194,542.63,18428.62,368.37,2717,24728,22011
195,542.69,18426.76,370.23,3439,25651,22212
196,542.74,18424.9,372.1,3359,25571,22212
197,542.8,18423.04,373.96,2634,25235,22601
198,542.85,18421.18,375.82,2861,25056,22195
199,542.91,18419.32,377.67,2610,24524,21914
200,542.96,18417.46,379.53,3151,25315,22164
201,543.02,18415.6,381.39,2941,25298,22357
202,543.07,18413.74,383.25,2543,24891,22348
203,543.13,18411.89,385.11,3027,25714,22687
204,543.18,18410.03,386.96,3335,25815,22480
205,543.24,18408.17,388.82,3286,25838,22552
206,543.29,18406.32,390.67,2646,25395,22749
207,543.35,18404.46,392.53,2925,25390,22465
208,543.4,18402.61,394.38,2938,25858,22920
209,543.46,18400.75,396.24,3107,25538,22431
210,543.51,18398.9,398.09,5105,27927,22822
211,543.57,18397.05,399.94,3237,26063,22826
212,543.62,18395.2,401.8,2863,25944,23081
213,543.67,18393.34,403.65,2860,25778,22918
214,543.73,18391.49,405.5,2732,25777,23045
215,543.78,18389.64,407.35,3398,26289,22891
216,543.84,18387.79,409.2,4906,27564,22658
217,543.89,18385.94,411.05,3435,26508,23073
218,543.95,18384.09,412.9,3695,27050,23355
219,544,18382.24,414.75,2853,25709,22856
220,544.06,18380.4,416.6,2809,26063,23254
221,544.11,18378.55,418.44,2896,26239,23343
222,544.17,18376.7,420.29,3240,26507,23267
223,544.22,18374.85,422.14,5306,28767,23461
224,544.28,18373.01,423.98,3150,26673,23523
225,544.33,18371.16,425.83,3246,26776,23530
226,544.39,18369.32,427.68,3335,26717,23382
227,544.44,18367.47,429.52,2943,26377,23434
228,544.5,18365.63,431.36,3016,26768,23752
229,544.55,18363.79,433.21,8271,32191,23920
230,544.6,18361.94,435.05,7911,31478,23567
231,544.66,18360.1,436.89,2869,26507,23638
232,544.71,18358.26,438.73,3187,26964,23777
233,544.77,18356.42,440.58,2772,26177,23405
234,544.82,18354.58,442.42,3609,27412,23803
235,544.88,18352.74,444.26,3218,27056,23838
236,544.93,18350.9,446.1,3241,26575,23334
237,544.99,18349.06,447.94,2613,26918,24305
238,545.04,18347.22,449.78,3082,27270,24188
239,545.1,18345.38,451.61,3387,27277,23890
240,545.15,18343.54,453.45,2952,26848,23896
241,545.21,18341.7,455.29,3275,27044,23769
242,545.26,18339.87,457.13,2417,26312,23895
243,545.31,18338.03,458.96,3082,27012,23930
244,545.37,18336.2,460.8,2702,26664,23962
245,545.42,18334.36,462.63,3322,27253,23931
246,545.48,18332.53,464.47,2756,27246,24490
247,545.53,18330.69,466.3,3449,27881,24432
248,545.59,18328.86,468.13,2870,26975,24105
249,545.64,18327.03,469.97,2397,26576,24179
250,545.7,18325.19,471.8,2384,26600,24216
251,545.75,18323.36,473.63,3185,27383,24198
252,545.81,18321.53,475.46,2819,27317,24498
253,545.86,18319.7,477.29,2369,26455,24086
254,545.92,18317.87,479.12,3785,28075,24290
255,545.97,18316.04,480.95,2485,26949,24464
256,546.02,18314.21,482.78,3510,27796,24286
257,546.08,18312.38,484.61,3219,27870,24651
258,546.13,18310.55,486.44,2554,27357,24803
259,546.19,18308.72,488.27,2983,27111,24128
260,546.24,18306.9,490.1,3312,27623,24311
261,546.3,18305.07,491.92,4125,28862,24737
262,546.35,18303.24,493.75,2823,27819,24996
263,546.41,18301.42,495.58,3252,27907,24655
264,546.46,18299.59,497.4,3813,28278,24465
265,546.51,18297.77,499.23,2751,27262,24511
266,546.57,18295.94,501.05,3200,27723,24523
267,546.62,18294.12,502.87,2823,27424,24601
268,546.68,18292.3,504.7,2679,26675,23996
269,546.73,18290.47,506.52,3100,27428,24328
270,546.79,18288.65,508.34,2971,27365,24394
271,546.84,18286.83,510.16,2972,27181,24209
272,546.9,18285.01,511.98,3457,28111,24654
273,546.95,18283.19,513.81,3162,27254,24092
274,547.01,18281.37,515.63,3212,27706,24494
275,547.06,18279.55,517.44,2583,27632,25049
276,547.11,18277.73,519.26,3531,27744,24213
277,547.17,18275.91,521.08,3146,27702,24556
278,547.22,18274.09,522.9,3241,28154,24913
279,547.28,18272.27,524.72,3559,28097,24538
280,547.33,18270.46,526.53,2969,27727,24758
281,547.39,18268.64,528.35,2728,27566,24838
282,547.44,18266.83,530.17,3108,27400,24292
283,547.49,18265.01,531.98,2852,27524,24672
284,547.55,18263.19,533.8,3301,27948,24647
285,547.6,18261.38,535.61,2633,27271,24638
286,547.66,18259.57,537.43,3075,27136,24061
287,547.71,18257.75,539.24,3043,27848,24805
288,547.77,18255.94,541.05,3357,27665,24308
289,547.82,18254.13,542.86,2832,27754,24922
290,547.88,18252.32,544.68,2883,27318,24435
291,547.93,18250.5,546.49,3548,28273,24725
292,547.98,18248.69,548.3,2508,27478,24970
293,548.04,18246.88,550.11,2925,27590,24665
294,548.09,18245.07,551.92,2645,27588,24943
295,548.15,18243.26,553.73,2972,28160,25188
296,548.2,18241.46,555.54,2517,27182,24665
297,548.26,18239.65,557.34,3351,28581,25230
298,548.31,18237.84,559.15,3036,27926,24890
299,548.36,18236.03,560.96,2347,27110,24763
300,548.42,18234.23,562.77,2610,27832,25222
301,548.47,18232.42,564.57,4069,29254,25185
302,548.53,18230.61,566.38,3504,28739,25235
303,548.58,18228.81,568.18,2813,28062,25249
304,548.64,18227,569.99,3116,28383,25267
305,548.69,18225.2,571.79,2963,28325,25362
306,548.75,18223.4,573.6,2512,27680,25168
307,548.8,18221.59,575.4,2914,28511,25597
308,548.85,18219.79,577.2,3116,28645,25529
309,548.91,18217.99,579,2967,28267,25300
310,548.96,18216.19,580.8,3478,29180,25702
311,549.02,18214.39,582.61,3742,29488,25746
312,549.07,18212.59,584.41,2645,28324,25679
313,549.13,18210.79,586.21,3705,28961,25256
314,549.18,18208.99,588.01,2906,28836,25930
315,549.23,18207.19,589.8,3612,29447,25835
316,549.29,18205.39,591.6,2815,28802,25987
317,549.34,18203.59,593.4,2969,29207,26238
318,549.4,18201.79,595.2,2881,28937,26056
319,549.45,18200,597,3314,29276,25962
320,549.5,18198.2,598.79,3006,29010,26004
321,549.56,18196.4,600.59,2938,29086,26148
322,549.61,18194.61,602.38,3138,29283,26145
323,549.67,18192.81,604.18,2996,29196,26200
324,549.72,18191.02,605.97,3441,29715,26274
325,549.78,18189.23,607.77,3361,30050,26689
326,549.83,18187.43,609.56,3128,29796,26668
327,549.88,18185.64,611.35,3362,30136,26774
328,549.94,18183.85,613.15,3172,29664,26492
329,549.99,18182.06,614.94,3459,30131,26672
330,550.05,18180.26,616.73,3566,30138,26572
331,550.1,18178.47,618.52,3186,29848,26662
332,550.16,18176.68,620.31,3101,30182,27081
333,550.21,18174.89,622.1,3098,29775,26677
334,550.26,18173.1,623.89,3294,29936,26642
335,550.32,18171.32,625.68,3122,29873,26751
336,550.37,18169.53,627.47,3132,30172,27040
337,550.43,18167.74,629.25,4184,31169,26985
338,550.48,18165.95,631.04,2875,29996,27121
339,550.53,18164.17,632.83,3253,30025,26772
340,550.59,18162.38,634.61,3115,30370,27255
341,550.64,18160.59,636.4,3046,30227,27181
342,550.7,18158.81,638.18,3452,30586,27134
343,550.75,18157.02,639.97,2975,30092,27117
344,550.81,18155.24,641.75,3346,30791,27445
345,550.86,18153.46,643.54,2700,29756,27056
346,550.91,18151.67,645.32,3546,30607,27061
347,550.97,18149.89,647.1,3416,30684,27268
348,551.02,18148.11,648.88,3051,30398,27347
349,551.08,18146.33,650.67,3154,30279,27125
350,551.13,18144.54,652.45,3263,30911,27648
351,551.18,18142.76,654.23,2929,30429,27500
352,551.24,18140.98,656.01,2873,30427,27554
353,551.29,18139.2,657.79,2810,30372,27562
354,551.35,18137.43,659.57,2896,30647,27751
355,551.4,18135.65,661.35,3553,31172,27619
356,551.45,18133.87,663.12,2965,30148,27183
357,551.51,18132.09,664.9,3010,30782,27772
358,551.56,18130.31,666.68,2958,31038,28080
359,551.62,18128.54,668.46,3004,30528,27524
360,551.67,18126.76,670.23,2973,30958,27985
361,551.72,18124.99,672.01,3267,31103,27836
362,551.78,18123.21,673.78,2362,30460,28098
363,551.83,18121.44,675.56,2978,30765,27787
364,551.89,18119.66,677.33,2751,30620,27869
365,551.94,18117.89,679.1,2822,30881,28059
366,551.99,18116.12,680.88,3482,31598,28116
367,552.05,18114.34,682.65,3354,31738,28384
368,552.1,18112.57,684.42,2256,30563,28307
369,552.16,18110.8,686.19,2736,31317,28581
370,552.21,18109.03,687.96,2886,31140,28254
371,552.26,18107.26,689.73,2657,30817,28160
372,552.32,18105.49,691.5,3130,31848,28718
373,552.37,18103.72,693.27,2905,31197,28292
374,552.43,18101.95,695.04,3127,31694,28567
375,552.48,18100.18,696.81,2862,31427,28565
376,552.53,18098.41,698.58,3097,31482,28385
377,552.59,18096.65,700.35,3127,31743,28616
378,552.64,18094.88,702.11,3199,32136,28937
379,552.7,18093.11,703.88,3912,32470,28558
380,552.75,18091.35,705.65,2710,31416,28706
381,552.8,18089.58,707.41,3584,32121,28537
382,552.86,18087.82,709.18,2734,31138,28404
383,552.91,18086.05,710.94,3270,31973,28703
384,552.97,18084.29,712.7,3188,31532,28344
385,553.02,18082.52,714.47,3191,32687,29496
386,553.07,18080.76,716.23,2824,31950,29126
387,553.13,18079,717.99,2620,32036,29416
388,553.18,18077.24,719.76,3186,32486,29300
389,553.24,18075.48,721.52,2712,31458,28746
390,553.29,18073.71,723.28,3071,31948,28877
391,553.34,18071.95,725.04,2865,32138,29273
392,553.4,18070.19,726.8,3155,31884,28729
393,553.45,18068.44,728.56,2684,32079,29395
394,553.51,18066.68,730.32,2844,31952,29108
395,553.56,18064.92,732.07,3146,32564,29418
396,553.61,18063.16,733.83,3390,32623,29233
397,553.67,18061.4,735.59,3105,32392,29287
398,553.72,18059.65,737.35,3456,32599,29143
399,553.77,18057.89,739.1,2966,32182,29216
400,553.83,18056.13,740.86,3316,32772,29456
401,553.88,18054.38,742.61,2733,32215,29482
402,553.94,18052.62,744.37,2853,32152,29299
403,553.99,18050.87,746.12,2617,31990,29373
404,554.04,18049.11,747.88,2963,32062,29099
405,554.1,18047.36,749.63,3492,32820,29328
406,554.15,18045.61,751.38,3355,32865,29510
407,554.21,18043.86,753.14,2964,32280,29316
408,554.26,18042.1,754.89,2637,32522,29885
409,554.31,18040.35,756.64,3443,32667,29224
410,554.37,18038.6,758.39,3374,32478,29104
411,554.42,18036.85,760.14,5066,34671,29605
412,554.47,18035.1,761.89,5358,34866,29508
413,554.53,18033.35,763.64,2830,32696,29866
414,554.58,18031.6,765.39,2699,32493,29794
415,554.64,18029.86,767.14,2943,32609,29666
416,554.69,18028.11,768.89,2883,32528,29645
417,554.74,18026.36,770.63,3001,32994,29993
418,554.8,18024.61,772.38,2889,32724,29835
419,554.85,18022.87,774.13,2607,32684,30077
420,554.9,18021.12,775.87,2953,32919,29966
421,554.96,18019.38,777.62,2923,33136,30213
422,555.01,18017.63,779.36,2874,33071,30197
423,555.07,18015.89,781.11,3855,34083,30228
424,555.12,18014.14,782.85,3650,33550,29900
425,555.17,18012.4,784.59,2756,32762,30006
426,555.23,18010.66,786.34,3045,33607,30562
427,555.28,18008.91,788.08,3331,34074,30743
428,555.33,18007.17,789.82,3278,33854,30576
429,555.39,18005.43,791.56,2901,33527,30626
430,555.44,18003.69,793.3,3187,33552,30365
431,555.5,18001.95,795.04,2782,33405,30623
432,555.55,18000.21,796.78,2859,33575,30716
433,555.6,17998.47,798.52,2937,33745,30808
434,555.66,17996.73,800.26,2730,33560,30830
435,555.71,17994.99,802,3495,34513,31018
436,555.76,17993.26,803.74,2909,33647,30738
437,555.82,17991.52,805.47,2810,33335,30525
438,555.87,17989.78,807.21,2573,33419,30846
439,555.92,17988.04,808.95,3658,34672,31014
440,555.98,17986.31,810.68,2634,33673,31039
441,556.03,17984.57,812.42,2651,33672,31021
442,556.09,17982.84,814.15,3307,34853,31546
443,556.14,17981.1,815.89,3373,34820,31447
444,556.19,17979.37,817.62,2921,33962,31041
445,556.25,17977.64,819.36,2817,34009,31192
446,556.3,17975.9,821.09,2981,33878,30897
447,556.35,17974.17,822.82,3538,34984,31446
448,556.41,17972.44,824.55,3586,33939,30353
449,556.46,17970.71,826.28,3204,34345,31141
450,556.51,17968.98,828.02,3378,34495,31117
451,556.57,17967.25,829.75,3313,34541,31228
452,556.62,17965.52,831.48,2930,33975,31045
453,556.68,17963.79,833.21,2774,34181,31407
454,556.73,17962.06,834.93,2923,34275,31352
455,556.78,17960.33,836.66,2919,34155,31236
456,556.84,17958.6,838.39,2877,34313,31436
457,556.89,17956.87,840.12,2662,34095,31433
458,556.94,17955.15,841.84,3123,34325,31202
459,557,17953.42,843.57,3091,34494,31403
460,557.05,17951.7,845.3,3087,34305,31218
461,557.1,17949.97,847.02,3142,34433,31291
462,557.16,17948.24,848.75,3572,34664,31092
463,557.21,17946.52,850.47,3054,33852,30798
464,557.26,17944.8,852.2,2709,34275,31566
465,557.32,17943.07,853.92,2386,33783,31397
466,557.37,17941.35,855.64,3452,35182,31730
467,557.43,17939.63,857.37,2956,34559,31603
468,557.48,17937.91,859.09,2813,34076,31263
469,557.53,17936.18,860.81,2886,34862,31976
470,557.59,17934.46,862.53,2947,34742,31795
471,557.64,17932.74,864.25,2497,33837,31340
472,557.69,17931.02,865.97,2998,34474,31476
473,557.75,17929.3,867.69,2551,34109,31558
474,557.8,17927.58,869.41,3336,35117,31781
475,557.85,17925.87,871.13,2373,34016,31643
476,557.91,17924.15,872.85,3000,34370,31370
477,557.96,17922.43,874.56,2502,33997,31495
478,558.01,17920.71,876.28,3080,34916,31836
479,558.07,17919,878,3233,34816,31583
480,558.12,17917.28,879.71,3017,34962,31945
481,558.17,17915.56,881.43,2732,34565,31833
482,558.23,17913.85,883.14,2605,34513,31908
483,558.28,17912.13,884.86,2932,35008,32076
484,558.33,17910.42,886.57,3024,34945,31921
485,558.39,17908.71,888.29,3994,36093,32099
486,558.44,17906.99,890,2774,34562,31788
487,558.49,17905.28,891.71,2577,35399,32822
488,558.55,17903.57,893.42,2899,35223,32324
489,558.6,17901.86,895.14,3048,35202,32154
490,558.65,17900.15,896.85,2833,35010,32177
491,558.71,17898.44,898.56,3014,35560,32546
492,558.76,17896.73,900.27,3028,35629,32601
493,558.81,17895.02,901.98,3386,35570,32184
494,558.87,17893.31,903.69,4617,36076,31459
495,558.92,17891.6,905.39,3111,34944,31833
496,558.97,17889.89,907.1,2880,35715,32835
497,559.03,17888.18,908.81,3440,35658,32218
498,559.08,17886.47,910.52,2740,35542,32802
499,559.14,17884.77,912.22,3158,36226,33068
500,559.19,17883.06,913.93,3355,36239,32884
501,559.24,17881.36,915.64,2769,36261,33492
502,559.3,17879.65,917.34,3335,36347,33012
503,559.35,17877.95,919.05,3199,36254,33055
504,559.4,17876.24,920.75,3071,36099,33028
505,559.46,17874.54,922.45,2672,35955,33283
506,559.51,17872.83,924.16,2847,36209,33362
507,559.56,17871.13,925.86,2920,36120,33200
508,559.61,17869.43,927.56,2804,36266,33462
509,559.67,17867.73,929.27,2851,35598,32747
510,559.72,17866.03,930.97,3875,36909,33034
511,559.77,17864.33,932.67,3215,36339,33124
512,559.83,17862.62,934.37,2602,36256,33654
513,559.88,17860.93,936.07,3258,36620,33362
514,559.93,17859.23,937.77,2923,36050,33127
515,559.99,17857.53,939.47,3388,36568,33180
516,560.04,17855.83,941.16,2892,36360,33468
517,560.09,17854.13,942.86,3392,36278,32886
518,560.15,17852.43,944.56,3058,36271,33213
519,560.2,17850.74,946.26,2648,36265,33617
520,560.25,17849.04,947.95,5376,38291,32915
521,560.31,17847.34,949.65,2896,36168,33272
522,560.36,17845.65,951.34,2644,35872,33228
523,560.41,17843.95,953.04,2843,36593,33750
524,560.47,17842.26,954.73,3037,36156,33119
525,560.52,17840.56,956.43,3170,36547,33377
526,560.57,17838.87,958.12,2756,36358,33602
527,560.63,17837.18,959.81,3454,37320,33866
528,560.68,17835.49,961.51,2662,36045,33383
529,560.73,17833.79,963.2,3131,36807,33676
530,560.79,17832.1,964.89,2914,36702,33788
531,560.84,17830.41,966.58,2646,36546,33900
532,560.89,17828.72,968.27,3074,36857,33783
533,560.95,17827.03,969.96,3149,36676,33527
534,561,17825.34,971.65,3078,36424,33346
535,561.05,17823.65,973.34,3125,36400,33275
536,561.11,17821.96,975.03,2651,36476,33825
537,561.16,17820.27,976.72,3849,37782,33933
538,561.21,17818.59,978.41,5611,39078,33467
539,561.26,17816.9,980.09,3165,37010,33845
540,561.32,17815.21,981.78,2667,36634,33967
541,561.37,17813.53,983.47,3128,37491,34363
542,561.42,17811.84,985.15,3277,37557,34280
543,561.48,17810.16,986.84,2746,36944,34198
544,561.53,17808.47,988.52,2717,36608,33891
545,561.58,17806.79,990.21,2436,36577,34141
546,561.64,17805.1,991.89,2791,37280,34489
547,561.69,17803.42,993.57,2968,37243,34275
548,561.74,17801.74,995.26,2870,37407,34537
549,561.8,17800.05,996.94,2907,37244,34337
550,561.85,17798.37,998.62,3105,38224,35119
551,561.9,17796.69,1000.3,3298,37628,34330
552,561.96,17795.01,1001.98,3284,38224,34940
553,562.01,17793.33,1003.66,2657,37364,34707
554,562.06,17791.65,1005.34,2856,38100,35244
555,562.11,17789.97,1007.02,2720,37458,34738
556,562.17,17788.29,1008.7,3068,38046,34978
557,562.22,17786.61,1010.38,2717,37669,34952
558,562.27,17784.94,1012.06,2940,37779,34839
559,562.33,17783.26,1013.73,3348,38678,35330
560,562.38,17781.58,1015.41,3102,38095,34993
561,562.43,17779.9,1017.09,2919,38241,35322
562,562.49,17778.23,1018.76,3563,39049,35486
563,562.54,17776.55,1020.44,3261,38790,35529
564,562.59,17774.88,1022.11,3983,39759,35776
565,562.64,17773.2,1023.79,3956,39018,35062
566,562.7,17771.53,1025.46,2817,38206,35389
567,562.75,17769.86,1027.14,3118,38758,35640
568,562.8,17768.18,1028.81,3313,38135,34822
569,562.86,17766.51,1030.48,3577,39100,35523
570,562.91,17764.84,1032.16,2576,37787,35211
571,562.96,17763.17,1033.83,2810,38803,35993
572,563.02,17761.49,1035.5,3149,39153,36004
573,563.07,17759.82,1037.17,2710,38867,36157
574,563.12,17758.15,1038.84,3367,39320,35953
575,563.17,17756.48,1040.51,2762,38388,35626
576,563.23,17754.81,1042.18,2594,38770,36176
577,563.28,17753.15,1043.85,3299,39445,36146
578,563.33,17751.48,1045.52,3261,39115,35854
579,563.39,17749.81,1047.18,3466,39623,36157
580,563.44,17748.14,1048.85,2888,38749,35861
581,563.49,17746.48,1050.52,3481,39896,36415
582,563.55,17744.81,1052.18,3328,39684,36356
583,563.6,17743.14,1053.85,3517,39603,36086
584,563.65,17741.48,1055.51,3056,39532,36476
585,563.7,17739.81,1057.18,2860,39229,36369
586,563.76,17738.15,1058.84,2967,39121,36154
587,563.81,17736.48,1060.51,3107,39257,36150
588,563.86,17734.82,1062.17,2371,38866,36495
589,563.92,17733.16,1063.83,2729,39095,36366
590,563.97,17731.5,1065.5,2655,39665,37010
591,564.02,17729.83,1067.16,3034,40089,37055
592,564.07,17728.17,1068.82,2452,39310,36858
593,564.13,17726.51,1070.48,3071,40209,37138
594,564.18,17724.85,1072.14,2931,39485,36554
595,564.23,17723.19,1073.8,3161,39957,36796
596,564.29,17721.53,1075.46,3107,40354,37247
597,564.34,17719.87,1077.12,3706,40971,37265
598,564.39,17718.21,1078.78,2862,39846,36984
599,564.44,17716.55,1080.44,2155,39078,36923
600,564.5,17714.9,1082.1,3575,40667,37092
601,564.55,17713.24,1083.75,2355,39809,37454
602,564.6,17711.58,1085.41,3175,40539,37364
603,564.66,17709.93,1087.07,2891,40318,37427
604,564.71,17708.27,1088.72,3082,40405,37323
605,564.76,17706.61,1090.38,3359,40726,37367
606,564.81,17704.96,1092.03,2773,40487,37714
607,564.87,17703.31,1093.69,3411,40750,37339
608,564.92,17701.65,1095.34,3104,40751,37647
609,564.97,17700,1096.99,2878,40869,37991
610,565.02,17698.35,1098.65,3302,40991,37689
611,565.08,17696.69,1100.3,2572,40296,37724
612,565.13,17695.04,1101.95,2548,40475,37927
613,565.18,17693.39,1103.6,3044,40688,37644
614,565.24,17691.74,1105.25,3148,40792,37644
615,565.29,17690.09,1106.9,2755,40821,38066
616,565.34,17688.44,1108.55,2979,40889,37910
617,565.39,17686.79,1110.2,2627,40868,38241
618,565.45,17685.14,1111.85,3219,41076,37857
619,565.5,17683.49,1113.5,3734,41594,37860
620,565.55,17681.84,1115.15,2526,40560,38034
621,565.6,17680.19,1116.8,3132,41947,38815
622,565.66,17678.55,1118.45,2582,40590,38008
623,565.71,17676.9,1120.09,2725,40825,38100
624,565.76,17675.25,1121.74,2639,40902,38263
625,565.82,17673.61,1123.38,2738,40815,38077
626,565.87,17671.96,1125.03,3132,41324,38192
627,565.92,17670.32,1126.67,2995,41484,38489
628,565.97,17668.67,1128.32,2872,41350,38478
629,566.03,17667.03,1129.96,2997,41789,38792
630,566.08,17665.39,1131.61,3179,41243,38064
631,566.13,17663.74,1133.25,2339,40495,38156
632,566.18,17662.1,1134.89,2681,40886,38205
633,566.24,17660.46,1136.53,3279,41276,37997
634,566.29,17658.82,1138.17,3090,41390,38300
635,566.34,17657.18,1139.82,3000,41450,38450
636,566.39,17655.54,1141.46,2545,41514,38969
637,566.45,17653.9,1143.1,2631,41241,38610
638,566.5,17652.26,1144.74,3054,41710,38656
639,566.55,17650.62,1146.37,2995,41940,38945
640,566.61,17648.98,1148.01,2935,41631,38696
641,566.66,17647.34,1149.65,2243,41021,38778
642,566.71,17645.7,1151.29,2623,41327,38704
643,566.76,17644.07,1152.93,2821,41860,39039
644,566.82,17642.43,1154.56,2988,41626,38638
645,566.87,17640.79,1156.2,3112,41713,38601
646,566.92,17639.16,1157.84,3737,42415,38678
647,566.97,17637.52,1159.47,2810,41906,39096
648,567.03,17635.89,1161.11,2939,42337,39398
649,567.08,17634.25,1162.74,2948,41820,38872
650,567.13,17632.62,1164.37,2865,42484,39619
651,567.18,17630.99,1166.01,3091,42332,39241
652,567.24,17629.35,1167.64,3052,42292,39240
653,567.29,17627.72,1169.27,2760,41197,38437
654,567.34,17626.09,1170.9,2561,42025,39464
655,567.39,17624.46,1172.54,2327,41600,39273
656,567.45,17622.83,1174.17,2338,41884,39546
657,567.5,17621.2,1175.8,3446,42767,39321
658,567.55,17619.57,1177.43,2532,42012,39480
659,567.6,17617.94,1179.06,2379,42118,39739
660,567.66,17616.31,1180.69,3189,43143,39954
661,567.71,17614.68,1182.31,2719,42187,39468
662,567.76,17613.05,1183.94,3261,43116,39855
663,567.81,17611.42,1185.57,2817,42464,39647
664,567.87,17609.79,1187.2,2896,42922,40026
665,567.92,17608.17,1188.82,2959,43021,40062
666,567.97,17606.54,1190.45,2854,43246,40392
667,568.02,17604.92,1192.08,2878,42377,39499
668,568.08,17603.29,1193.7,2479,42736,40257
669,568.13,17601.67,1195.33,2456,42620,40164
670,568.18,17600.04,1196.95,2831,43353,40522
671,568.23,17598.42,1198.58,2695,43196,40501
672,568.29,17596.79,1200.2,2686,42841,40155
673,568.34,17595.17,1201.82,2962,43332,40370
674,568.39,17593.55,1203.44,3439,44220,40781
675,568.44,17591.93,1205.07,3395,43920,40525
676,568.5,17590.3,1206.69,3210,43860,40650
677,568.55,17588.68,1208.31,2800,43112,40312
678,568.6,17587.06,1209.93,2700,43144,40444
679,568.65,17585.44,1211.55,2531,43487,40956
680,568.7,17583.82,1213.17,2926,43872,40946
681,568.76,17582.2,1214.79,3359,43810,40451
682,568.81,17580.58,1216.41,2946,43446,40500
683,568.86,17578.97,1218.03,2648,43945,41297
684,568.91,17577.35,1219.64,3917,45432,41515
685,568.97,17575.73,1221.26,2872,43631,40759
686,569.02,17574.11,1222.88,2418,43816,41398
687,569.07,17572.5,1224.49,2714,43607,40893
688,569.12,17570.88,1226.11,2654,43355,40701
689,569.18,17569.27,1227.73,3019,44273,41254
690,569.23,17567.65,1229.34,2952,44096,41144
691,569.28,17566.04,1230.96,2879,44482,41603
692,569.33,17564.42,1232.57,2470,44023,41553
693,569.38,17562.81,1234.18,2806,44636,41830
694,569.44,17561.2,1235.8,3228,44754,41526
695,569.49,17559.58,1237.41,2791,44424,41633
696,569.54,17557.97,1239.02,2687,44264,41577
697,569.59,17556.36,1240.63,2476,44190,41714
698,569.65,17554.75,1242.24,2827,44456,41629
699,569.7,17553.14,1243.85,3400,44802,41402
700,569.75,17551.53,1245.47,3020,44589,41569
701,569.8,17549.92,1247.08,2619,44755,42136
702,569.86,17548.31,1248.68,2985,44969,41984
703,569.91,17546.7,1250.29,3876,46068,42192
704,569.96,17545.09,1251.9,3368,45400,42032
705,570.01,17543.48,1253.51,3143,45645,42502
706,570.06,17541.88,1255.12,2727,45062,42335
707,570.12,17540.27,1256.72,2615,45109,42494
708,570.17,17538.66,1258.33,4221,45996,41775
709,570.22,17537.06,1259.94,2632,45590,42958
710,570.27,17535.45,1261.54,3379,46329,42950
711,570.33,17533.84,1263.15,2939,45575,42636
712,570.38,17532.24,1264.75,3376,45698,42322
713,570.43,17530.64,1266.36,2414,45591,43177
714,570.48,17529.03,1267.96,4732,47348,42616
715,570.53,17527.43,1269.56,3370,46197,42827
716,570.59,17525.83,1271.17,3003,45799,42796
717,570.64,17524.22,1272.77,2908,46159,43251
718,570.69,17522.62,1274.37,2489,45893,43404
719,570.74,17521.02,1275.97,3100,46456,43356
720,570.8,17519.42,1277.57,3171,46368,43197
721,570.85,17517.82,1279.17,2631,46860,44229
722,570.9,17516.22,1280.77,3279,47219,43940
723,570.95,17514.62,1282.37,3212,47191,43979
724,571,17513.02,1283.97,3091,47766,44675
725,571.06,17511.42,1285.57,2876,47349,44473
726,571.11,17509.82,1287.17,2471,47288,44817
727,571.16,17508.23,1288.77,2733,47685,44952
728,571.21,17506.63,1290.36,3797,48662,44865
729,571.26,17505.03,1291.96,2720,48256,45536
730,571.32,17503.44,1293.56,2799,48097,45298
731,571.37,17501.84,1295.15,3229,48050,44821
732,571.42,17500.24,1296.75,2878,48626,45748
733,571.47,17498.65,1298.34,3325,48931,45606
734,571.52,17497.06,1299.94,2185,48226,46041
735,571.58,17495.46,1301.53,2946,49536,46590
736,571.63,17493.87,1303.12,2921,49921,47000
737,571.68,17492.27,1304.72,2753,49897,47144
738,571.73,17490.68,1306.31,3533,50627,47094
739,571.79,17489.09,1307.9,2630,49911,47281
740,571.84,17487.5,1309.49,2375,50344,47969
741,571.89,17485.91,1311.09,2532,51059,48527
742,571.94,17484.32,1312.68,2430,51518,49088
743,571.99,17482.73,1314.27,3250,52151,48901
744,572.05,17481.14,1315.86,3151,52845,49694
745,572.1,17479.55,1317.45,2551,52425,49874
746,572.15,17477.96,1319.03,3079,53590,50511
747,572.2,17476.37,1320.62,2802,53528,50726
748,572.25,17474.78,1322.21,2730,53934,51204
749,572.31,17473.19,1323.8,2637,54877,52240
750,572.36,17471.61,1325.38,2801,54908,52107
751,572.41,17470.02,1326.97,2651,55444,52793
752,572.46,17468.44,1328.56,3227,56501,53274
753,572.51,17466.85,1330.14,3036,56287,53251
754,572.57,17465.26,1331.73,3394,56919,53525
755,572.62,17463.68,1333.31,2571,56503,53932
756,572.67,17462.1,1334.9,2977,57142,54165
757,572.72,17460.51,1336.48,2561,57103,54542
758,572.77,17458.93,1338.06,2954,57983,55029
759,572.82,17457.35,1339.65,2466,57671,55205
760,572.88,17455.76,1341.23,2720,57596,54876
761,572.93,17454.18,1342.81,2687,57562,54875
762,572.98,17452.6,1344.39,3100,57963,54863
763,573.03,17451.02,1345.97,2658,57439,54781
764,573.08,17449.44,1347.55,2450,56915,54465
765,573.14,17447.86,1349.13,2872,57073,54201
766,573.19,17446.28,1350.71,2995,56249,53254
767,573.24,17444.7,1352.29,5301,58855,53554
768,573.29,17443.12,1353.87,2677,56235,53558
769,573.34,17441.54,1355.45,3078,56666,53588
770,573.4,17439.97,1357.03,3044,54961,51917
771,573.45,17438.39,1358.6,2724,54159,51435
772,573.5,17436.81,1360.18,2929,54516,51587
773,573.55,17435.23,1361.76,3070,54020,50950
774,573.6,17433.66,1363.33,3158,53570,50412
775,573.65,17432.08,1364.91,3162,52717,49555
776,573.71,17430.51,1366.48,2984,52916,49932
777,573.76,17428.93,1368.06,2701,52000,49299
778,573.81,17427.36,1369.63,2682,51723,49041
779,573.86,17425.79,1371.21,4215,53186,48971
780,573.91,17424.21,1372.78,2561,50945,48384
781,573.97,17422.64,1374.35,2687,50561,47874
782,574.02,17421.07,1375.92,2465,49998,47533
783,574.07,17419.5,1377.5,2321,50885,48564
784,574.12,17417.93,1379.07,2519,50029,47510
785,574.17,17416.35,1380.64,2611,50252,47641
786,574.22,17414.78,1382.21,2831,49967,47136
787,574.28,17413.21,1383.78,2905,49826,46921
788,574.33,17411.65,1385.35,2483,49765,47282
789,574.38,17410.08,1386.92,2840,49499,46659
790,574.43,17408.51,1388.48,3503,50222,46719
791,574.48,17406.94,1390.05,2880,49418,46538
792,574.54,17405.37,1391.62,2698,49135,46437
793,574.59,17403.8,1393.19,2610,48551,45941
794,574.64,17402.24,1394.75,2789,48448,45659
795,574.69,17400.67,1396.32,2927,49005,46078
796,574.74,17399.11,1397.89,2739,48377,45638
797,574.79,17397.54,1399.45,3523,49522,45999
798,574.85,17395.98,1401.02,2577,48172,45595
799,574.9,17394.41,1402.58,3879,49309,45430
800,574.95,17392.85,1404.14,2742,48078,45336
801,575,17391.28,1405.71,3108,48345,45237
802,575.05,17389.72,1407.27,2473,47406,44933
803,575.1,17388.16,1408.83,2175,47956,45781
804,575.16,17386.6,1410.4,2569,47529,44960
805,575.21,17385.04,1411.96,2911,48130,45219
806,575.26,17383.47,1413.52,2698,47726,45028
807,575.31,17381.91,1415.08,2698,47990,45292
808,575.36,17380.35,1416.64,3127,47502,44375
809,575.41,17378.79,1418.2,2749,47367,44618
810,575.47,17377.23,1419.76,3015,48052,45037
811,575.52,17375.67,1421.32,2717,47407,44690
812,575.57,17374.12,1422.88,2527,47074,44547
813,575.62,17372.56,1424.43,2516,47560,45044
814,575.67,17371,1425.99,3487,48488,45001
815,575.72,17369.44,1427.55,2926,48333,45407
816,575.78,17367.89,1429.11,2624,47671,45047
817,575.83,17366.33,1430.66,2590,47718,45128
818,575.88,17364.78,1432.22,2773,48006,45233
819,575.93,17363.22,1433.77,2850,47797,44947
820,575.98,17361.67,1435.33,2696,47648,44952
821,576.03,17360.11,1436.88,2843,47456,44613
822,576.08,17358.56,1438.44,3375,48305,44930
823,576.14,17357,1439.99,3583,48704,45121
824,576.19,17355.45,1441.54,2937,48016,45079
825,576.24,17353.9,1443.09,3035,48386,45351
826,576.29,17352.35,1444.65,2845,47927,45082
827,576.34,17350.79,1446.2,2909,47748,44839
828,576.39,17349.24,1447.75,2672,47285,44613
829,576.45,17347.69,1449.3,2786,47748,44962
830,576.5,17346.14,1450.85,2930,48383,45453
831,576.55,17344.59,1452.4,2667,47495,44828
832,576.6,17343.04,1453.95,2897,47526,44629
833,576.65,17341.5,1455.5,2955,47662,44707
834,576.7,17339.95,1457.05,2254,47409,45155
835,576.75,17338.4,1458.59,2904,48144,45240
836,576.81,17336.85,1460.14,3447,48237,44790
837,576.86,17335.3,1461.69,2740,47492,44752
838,576.91,17333.76,1463.23,3135,47781,44646
839,576.96,17332.21,1464.78,2964,47451,44487
840,577.01,17330.67,1466.33,2705,48063,45358
841,577.06,17329.12,1467.87,2682,47547,44865
842,577.11,17327.58,1469.42,2459,47464,45005
843,577.17,17326.03,1470.96,3220,48343,45123
844,577.22,17324.49,1472.5,3135,48433,45298
845,577.27,17322.94,1474.05,2497,47600,45103
846,577.32,17321.4,1475.59,3105,47848,44743
847,577.37,17319.86,1477.13,2753,47684,44931
848,577.42,17318.32,1478.68,2597,48001,45404
849,577.47,17316.78,1480.22,4469,49431,44962
850,577.53,17315.23,1481.76,2536,47741,45205
851,577.58,17313.69,1483.3,2464,47619,45155
852,577.63,17312.15,1484.84,2687,47910,45223
853,577.68,17310.61,1486.38,2876,48248,45372
854,577.73,17309.07,1487.92,2542,48041,45499
855,577.78,17307.54,1489.46,3049,48209,45160
856,577.83,17306,1491,2701,47864,45163
857,577.89,17304.46,1492.53,2790,48353,45563
858,577.94,17302.92,1494.07,2972,48036,45064
859,577.99,17301.38,1495.61,2281,47668,45387
860,578.04,17299.85,1497.14,3264,48372,45108
861,578.09,17298.31,1498.68,2538,47878,45340
862,578.14,17296.78,1500.22,3449,48655,45206
863,578.19,17295.24,1501.75,4123,49524,45401
864,578.25,17293.71,1503.29,2707,47588,44881
865,578.3,17292.17,1504.82,2766,48631,45865
866,578.35,17290.64,1506.35,3273,49114,45841
867,578.4,17289.1,1507.89,2453,48318,45865
868,578.45,17287.57,1509.42,3376,49143,45767
869,578.5,17286.04,1510.95,2599,47970,45371
870,578.55,17284.51,1512.49,2507,48153,45646
871,578.6,17282.98,1514.02,3324,49202,45878
872,578.66,17281.44,1515.55,2663,48319,45656
873,578.71,17279.91,1517.08,2799,49236,46437
874,578.76,17278.38,1518.61,2619,48743,46124
875,578.81,17276.85,1520.14,3382,49825,46443
876,578.86,17275.32,1521.67,2318,49195,46877
877,578.91,17273.8,1523.2,2727,48509,45782
878,578.96,17272.27,1524.73,3111,49193,46082
879,579.01,17270.74,1526.25,3008,49591,46583
880,579.07,17269.21,1527.78,2894,49572,46678
881,579.12,17267.68,1529.31,2630,49421,46791
882,579.17,17266.16,1530.83,2559,49423,46864
883,579.22,17264.63,1532.36,3348,50086,46738
884,579.27,17263.11,1533.89,2951,49651,46700
885,579.32,17261.58,1535.41,2844,50567,47723
886,579.37,17260.06,1536.94,2607,50328,47721
887,579.42,17258.53,1538.46,2565,50213,47648
888,579.47,17257.01,1539.98,2683,50417,47734
889,579.53,17255.48,1541.51,3082,51494,48412
890,579.58,17253.96,1543.03,2560,50899,48339
891,579.63,17252.44,1544.55,3002,51200,48198
892,579.68,17250.92,1546.08,3232,51696,48464
893,579.73,17249.39,1547.6,2572,52687,50115
894,579.78,17247.87,1549.12,3046,52601,49555
895,579.83,17246.35,1550.64,2749,52373,49624
896,579.88,17244.83,1552.16,2794,52752,49958
897,579.93,17243.31,1553.68,2973,54584,51611
898,579.99,17241.79,1555.2,2995,54231,51236
899,580.04,17240.27,1556.72,2172,53728,51556
900,580.09,17238.76,1558.24,2411,54254,51843
901,580.14,17237.24,1559.76,3238,54844,51606
902,580.19,17235.72,1561.27,2911,55006,52095
903,580.24,17234.2,1562.79,3003,55410,52407
904,580.29,17232.69,1564.31,2892,55708,52816
905,580.34,17231.17,1565.82,2463,55287,52824
906,580.39,17229.65,1567.34,2340,56029,53689
907,580.45,17228.14,1568.85,2704,56048,53344
908,580.5,17226.62,1570.37,2595,55749,53154
909,580.55,17225.11,1571.88,2866,56292,53426
910,580.6,17223.59,1573.4,3877,57908,54031
911,580.65,17222.08,1574.91,2863,56888,54025
912,580.7,17220.57,1576.42,2488,56276,53788
913,580.75,17219.06,1577.94,2623,56304,53681
914,580.8,17217.54,1579.45,2559,56078,53519
915,580.85,17216.03,1580.96,2822,56428,53606
916,580.9,17214.52,1582.47,2714,55652,52938
917,580.96,17213.01,1583.98,2715,55863,53148
918,581.01,17211.5,1585.49,5081,57660,52579
919,581.06,17209.99,1587,3083,55813,52730
920,581.11,17208.48,1588.51,2672,55268,52596
921,581.16,17206.97,1590.02,2609,55111,52502
922,581.21,17205.46,1591.53,2588,55075,52487
923,581.26,17203.95,1593.04,2906,55132,52226
924,581.31,17202.44,1594.55,2605,54544,51939
925,581.36,17200.94,1596.06,2986,54549,51563
926,581.41,17199.43,1597.56,3152,54427,51275
927,581.47,17197.92,1599.07,2932,54657,51725
928,581.52,17196.42,1600.57,2226,53373,51147
929,581.57,17194.91,1602.08,2818,54180,51362
930,581.62,17193.41,1603.59,2571,53436,50865
931,581.67,17191.9,1605.09,3069,54612,51543
932,581.72,17190.4,1606.59,2614,53154,50540
933,581.77,17188.89,1608.1,2643,53436,50793
934,581.82,17187.39,1609.6,2907,53636,50729
935,581.87,17185.89,1611.1,2871,53203,50332
936,581.92,17184.39,1612.61,2563,52997,50434
937,581.97,17182.88,1614.11,2853,51897,49044
938,582.03,17181.38,1615.61,2719,51819,49100
939,582.08,17179.88,1617.11,2471,51156,48685
940,582.13,17178.38,1618.61,2753,51633,48880
941,582.18,17176.88,1620.11,2691,50854,48163
942,582.23,17175.38,1621.61,3028,50581,47553
943,582.28,17173.88,1623.11,2575,50237,47662
944,582.33,17172.38,1624.61,2942,50507,47565
945,582.38,17170.88,1626.11,2820,50603,47783
946,582.43,17169.39,1627.61,2845,50756,47911
947,582.48,17167.89,1629.1,2533,49255,46722
948,582.53,17166.39,1630.6,2887,49680,46793
949,582.58,17164.89,1632.1,3965,50552,46587
950,582.64,17163.4,1633.59,3046,49676,46630
951,582.69,17161.9,1635.09,3377,49360,45983
952,582.74,17160.41,1636.59,2699,48883,46184
953,582.79,17158.91,1638.08,2674,48473,45799
954,582.84,17157.42,1639.57,3448,49710,46262
955,582.89,17155.92,1641.07,3418,49284,45866
956,582.94,17154.43,1642.56,2999,48483,45484
957,582.99,17152.94,1644.06,3236,48616,45380
958,583.04,17151.44,1645.55,2638,48672,46034
959,583.09,17149.95,1647.04,2868,48342,45474
960,583.14,17148.46,1648.53,2359,48224,45865
961,583.19,17146.97,1650.02,2551,47837,45286
962,583.24,17145.48,1651.51,2306,47486,45180
963,583.29,17143.99,1653,2482,47949,45467
964,583.35,17142.5,1654.49,2808,47979,45171
965,583.4,17141.01,1655.98,3091,48247,45156
966,583.45,17139.52,1657.47,2838,48474,45636
967,583.5,17138.03,1658.96,2812,47650,44838
968,583.55,17136.54,1660.45,2550,47388,44838
969,583.6,17135.05,1661.94,3009,47621,44612
970,583.65,17133.57,1663.43,2975,47740,44765
971,583.7,17132.08,1664.91,2972,47548,44576
972,583.75,17130.59,1666.4,2684,47444,44760
973,583.8,17129.11,1667.88,3059,47878,44819
974,583.85,17127.62,1669.37,2682,47128,44446
975,583.9,17126.14,1670.86,2856,47207,44351
976,583.95,17124.65,1672.34,3047,47410,44363
977,584,17123.17,1673.82,2722,47192,44470
978,584.05,17121.68,1675.31,2567,47050,44483
979,584.11,17120.2,1676.79,2583,47216,44633
980,584.16,17118.72,1678.27,2834,46885,44051
981,584.21,17117.24,1679.76,2885,47575,44690
982,584.26,17115.75,1681.24,2911,47647,44736
983,584.31,17114.27,1682.72,2849,47008,44159
984,584.36,17112.79,1684.2,2693,47182,44489
985,584.41,17111.31,1685.68,2923,47174,44251
986,584.46,17109.83,1687.16,2450,46750,44300
987,584.51,17108.35,1688.64,2736,46787,44051
988,584.56,17106.87,1690.12,2923,46935,44012
989,584.61,17105.39,1691.6,2939,47388,44449
990,584.66,17103.91,1693.08,2537,46922,44385
991,584.71,17102.43,1694.56,3314,47494,44180
992,584.76,17100.96,1696.04,3195,47012,43817
993,584.81,17099.48,1697.51,3267,46935,43668
994,584.86,17098,1698.99,3699,47601,43902
995,584.91,17096.53,1700.47,2746,47025,44279
996,584.96,17095.05,1701.94,3108,47460,44352
997,585.02,17093.58,1703.42,2670,46760,44090
998,585.07,17092.1,1704.89,2743,46849,44106
999,585.12,17090.63,1706.37,2803,47082,44279
1000,585.17,17089.15,1707.84,2819,46753,43934
1001,585.22,17087.68,1709.31,2608,46868,44260
1002,585.27,17086.2,1710.79,2927,46994,44067
1003,585.32,17084.73,1712.26,2885,46851,43966
1004,585.37,17083.26,1713.73,2551,46521,43970
1005,585.42,17081.79,1715.2,2670,46464,43794
1006,585.47,17080.32,1716.68,2464,46107,43643
1007,585.52,17078.85,1718.15,2935,46910,43975
1008,585.57,17077.37,1719.62,3285,47429,44144
1009,585.62,17075.9,1721.09,2566,46345,43779
1010,585.67,17074.43,1722.56,2378,45924,43546
1011,585.72,17072.97,1724.03,2559,46650,44091
1012,585.77,17071.5,1725.5,2717,47124,44407
1013,585.82,17070.03,1726.96,2454,46215,43761
1014,585.87,17068.56,1728.43,2738,46493,43755
1015,585.92,17067.09,1729.9,2585,46604,44019
1016,585.97,17065.63,1731.37,3027,47143,44116
1017,586.02,17064.16,1732.83,3007,46671,43664
1018,586.07,17062.69,1734.3,3130,47446,44316
1019,586.12,17061.23,1735.77,3006,46715,43709
1020,586.17,17059.76,1737.23,3241,47026,43785
1021,586.23,17058.3,1738.7,2624,45882,43258
1022,586.28,17056.83,1740.16,2645,46599,43954
1023,586.33,17055.37,1741.62,2530,46600,44070
1024,586.38,17053.9,1743.09,2866,46564,43698
1025,586.43,17052.44,1744.55,3491,47584,44093
1026,586.48,17050.98,1746.01,2464,46268,43804
1027,586.53,17049.52,1747.48,2554,46576,44022
1028,586.58,17048.05,1748.94,2520,46758,44238
1029,586.63,17046.59,1750.4,2823,46469,43646
1030,586.68,17045.13,1751.86,2288,46206,43918
1031,586.73,17043.67,1753.32,3148,46572,43424
1032,586.78,17042.21,1754.78,2604,46220,43616
1033,586.83,17040.75,1756.24,2812,46003,43191
1034,586.88,17039.29,1757.7,3165,46569,43404
1035,586.93,17037.83,1759.16,2966,46688,43722
1036,586.98,17036.37,1760.62,3448,47444,43996
1037,587.03,17034.92,1762.08,2328,46322,43994
1038,587.08,17033.46,1763.53,2241,46169,43928
1039,587.13,17032,1764.99,2688,46854,44166
1040,587.18,17030.55,1766.45,3120,46850,43730
1041,587.23,17029.09,1767.9,3043,47245,44202
1042,587.28,17027.63,1769.36,2750,46540,43790
1043,587.33,17026.18,1770.81,2624,46139,43515
1044,587.38,17024.72,1772.27,3081,46954,43873
1045,587.43,17023.27,1773.72,2932,46589,43657
1046,587.48,17021.82,1775.18,3135,47053,43918
1047,587.53,17020.36,1776.63,2645,46939,44294
1048,587.58,17018.91,1778.08,2194,46270,44076
1049,587.63,17017.46,1779.54,2489,46671,44182
1050,587.68,17016,1780.99,2288,46442,44154
1051,587.73,17014.55,1782.44,2670,46780,44110
1052,587.78,17013.1,1783.89,3141,47537,44396
1053,587.83,17011.65,1785.34,2610,46944,44334
1054,587.88,17010.2,1786.79,2779,47395,44616
1055,587.93,17008.75,1788.24,3391,46775,43384
1056,587.98,17007.3,1789.69,3089,46782,43693
1057,588.03,17005.85,1791.14,2676,46534,43858
1058,588.08,17004.4,1792.59,2270,46193,43923
1059,588.13,17002.95,1794.04,2411,46351,43940
1060,588.18,17001.5,1795.49,3355,47163,43808
1061,588.23,17000.06,1796.94,3329,47100,43771
1062,588.28,16998.61,1798.38,2761,46424,43663
1063,588.33,16997.16,1799.83,3194,47480,44286
1064,588.38,16995.72,1801.28,2866,46902,44036
1065,588.43,16994.27,1802.72,2514,46440,43926
1066,588.48,16992.83,1804.17,2716,46621,43905
1067,588.53,16991.38,1805.61,2596,46488,43892
1068,588.58,16989.94,1807.06,2433,45831,43398
1069,588.63,16988.49,1808.5,2500,46051,43551
1070,588.68,16987.05,1809.94,2900,46612,43712
1071,588.73,16985.61,1811.39,2889,46975,44086
1072,588.78,16984.16,1812.83,3018,46363,43345
1073,588.83,16982.72,1814.27,2597,46380,43783
1074,588.88,16981.28,1815.71,2630,46110,43480
1075,588.93,16979.84,1817.16,3719,47202,43483
1076,588.98,16978.4,1818.6,3788,47040,43252
1077,589.03,16976.96,1820.04,3357,47429,44072
1078,589.08,16975.52,1821.48,2816,46397,43581
1079,589.13,16974.08,1822.92,2829,46454,43625
1080,589.18,16972.64,1824.36,3187,47232,44045
1081,589.23,16971.2,1825.79,2931,46720,43789
1082,589.28,16969.76,1827.23,3042,46925,43883
1083,589.33,16968.32,1828.67,2818,47317,44499
1084,589.38,16966.88,1830.11,2870,46716,43846
1085,589.43,16965.45,1831.55,2314,46589,44275
1086,589.48,16964.01,1832.98,2823,46662,43839
1087,589.53,16962.57,1834.42,2843,46796,43953
1088,589.58,16961.14,1835.85,2669,46275,43606
1089,589.63,16959.7,1837.29,3258,47388,44130
1090,589.68,16958.27,1838.72,2651,46249,43598
1091,589.73,16956.83,1840.16,2323,45711,43388
1092,589.78,16955.4,1841.59,2794,46862,44068
1093,589.83,16953.97,1843.03,2983,46341,43358
1094,589.88,16952.53,1844.46,2685,46522,43837
1095,589.93,16951.1,1845.89,3096,46718,43622
1096,589.98,16949.67,1847.33,2545,46208,43663
1097,590.03,16948.24,1848.76,2631,46826,44195
1098,590.08,16946.8,1850.19,2561,46494,43933
1099,590.13,16945.37,1851.62,2637,45937,43300
1100,590.18,16943.94,1853.05,2855,46441,43586
1101,590.23,16942.51,1854.48,2516,46140,43624
1102,590.28,16941.08,1855.91,2382,45984,43602
1103,590.33,16939.65,1857.34,3242,46488,43246
1104,590.38,16938.22,1858.77,2978,46700,43722
1105,590.43,16936.8,1860.2,3126,46900,43774
1106,590.48,16935.37,1861.63,2719,46168,43449
1107,590.53,16933.94,1863.05,2904,46666,43762
1108,590.58,16932.51,1864.48,3285,47380,44095
1109,590.63,16931.09,1865.91,3293,47038,43745
1110,590.68,16929.66,1867.33,3262,46821,43559
1111,590.73,16928.23,1868.76,2686,46624,43938
1112,590.78,16926.81,1870.18,3018,47043,44025
1113,590.83,16925.38,1871.61,2999,46511,43512
1114,590.88,16923.96,1873.03,2703,46562,43859
1115,590.93,16922.53,1874.46,4561,47738,43177
1116,590.98,16921.11,1875.88,3043,46936,43893
1117,591.03,16919.69,1877.31,2725,46626,43901
1118,591.08,16918.26,1878.73,3061,47130,44069
1119,591.13,16916.84,1880.15,3518,47058,43540
1120,591.18,16915.42,1881.57,3396,47467,44071
1121,591.23,16914,1883,2588,45864,43276
1122,591.28,16912.58,1884.42,2896,46802,43906
1123,591.33,16911.16,1885.84,3180,47330,44150
1124,591.38,16909.74,1887.26,3189,46933,43744
1125,591.42,16908.32,1888.68,2271,46475,44204
1126,591.47,16906.9,1890.1,2892,47206,44314
1127,591.52,16905.48,1891.52,2816,46464,43648
1128,591.57,16904.06,1892.93,2664,46329,43665
1129,591.62,16902.64,1894.35,2350,45889,43539
1130,591.67,16901.22,1895.77,2781,46362,43581
1131,591.72,16899.8,1897.19,3363,46938,43575
1132,591.77,16898.39,1898.6,2776,46819,44043
1133,591.82,16896.97,1900.02,2799,46463,43664
1134,591.87,16895.56,1901.44,2472,46318,43846
1135,591.92,16894.14,1902.85,2694,46582,43888
1136,591.97,16892.72,1904.27,2798,46200,43402
1137,592.02,16891.31,1905.68,2690,46093,43403
1138,592.07,16889.9,1907.1,2918,46808,43890
1139,592.12,16888.48,1908.51,2822,46617,43795
1140,592.17,16887.07,1909.92,2518,46067,43549
1141,592.22,16885.65,1911.34,2941,46352,43411
1142,592.27,16884.24,1912.75,2623,46521,43898
1143,592.32,16882.83,1914.16,2597,46134,43537
1144,592.37,16881.42,1915.57,2431,46121,43690
1145,592.42,16880.01,1916.99,3454,46784,43330
1146,592.47,16878.6,1918.4,2694,46240,43546
1147,592.52,16877.18,1919.81,3624,46444,42820
1148,592.57,16875.77,1921.22,2410,45326,42916
1149,592.61,16874.37,1922.63,3011,46572,43561
1150,592.66,16872.96,1924.04,2483,46243,43760
1151,592.71,16871.55,1925.45,3005,46931,43926
1152,592.76,16870.14,1926.85,3296,46607,43311
1153,592.81,16868.73,1928.26,2707,46228,43521
1154,592.86,16867.32,1929.67,2864,46217,43353
1155,592.91,16865.92,1931.08,3099,46621,43522
1156,592.96,16864.51,1932.48,2456,46219,43763
1157,593.01,16863.1,1933.89,2716,46007,43291
1158,593.06,16861.7,1935.3,3009,46198,43189
1159,593.11,16860.29,1936.7,2443,46138,43695
1160,593.16,16858.89,1938.11,2836,46662,43826
1161,593.21,16857.48,1939.51,2863,46547,43684
1162,593.26,16856.08,1940.91,3483,46870,43387
1163,593.31,16854.67,1942.32,2856,46505,43649
1164,593.36,16853.27,1943.72,5548,49156,43608
1165,593.41,16851.87,1945.12,3985,47448,43463
1166,593.46,16850.47,1946.53,2962,46297,43335
1167,593.5,16849.06,1947.93,2652,45869,43217
1168,593.55,16847.66,1949.33,2776,46145,43369
1169,593.6,16846.26,1950.73,2827,46303,43476
1170,593.65,16844.86,1952.13,3019,46334,43315
1171,593.7,16843.46,1953.53,3512,47088,43576
1172,593.75,16842.06,1954.93,2844,46201,43357
1173,593.8,16840.66,1956.33,3135,46335,43200
1174,593.85,16839.26,1957.73,2779,46203,43424
1175,593.9,16837.86,1959.13,2857,46163,43306
1176,593.95,16836.46,1960.53,3024,46635,43611
1177,594,16835.07,1961.93,3184,46585,43401
1178,594.05,16833.67,1963.32,2719,46026,43307
1179,594.1,16832.27,1964.72,2704,45923,43219
1180,594.15,16830.88,1966.12,3646,47168,43522
1181,594.2,16829.48,1967.51,2632,46213,43581
1182,594.24,16828.08,1968.91,2606,46185,43579
1183,594.29,16826.69,1970.3,2673,46477,43804
1184,594.34,16825.29,1971.7,2372,46076,43704
1185,594.39,16823.9,1973.09,3038,46353,43315
1186,594.44,16822.51,1974.49,2801,46432,43631
1187,594.49,16821.11,1975.88,2435,46155,43720
1188,594.54,16819.72,1977.27,2411,46056,43645
1189,594.59,16818.33,1978.67,2695,46613,43918
1190,594.64,16816.93,1980.06,2661,46210,43549
1191,594.69,16815.54,1981.45,2830,47025,44195
1192,594.74,16814.15,1982.84,2776,46443,43667
1193,594.79,16812.76,1984.23,3083,46908,43825
1194,594.84,16811.37,1985.62,2264,46130,43866
1195,594.88,16809.98,1987.01,3058,46643,43585
1196,594.93,16808.59,1988.4,2687,46138,43451
1197,594.98,16807.2,1989.79,2844,46636,43792
1198,595.03,16805.81,1991.18,2706,46809,44103
1199,595.08,16804.42,1992.57,2984,46261,43277
1200,595.13,16803.03,1993.96,2494,45627,43133
1201,595.18,16801.65,1995.35,3450,46822,43372
1202,595.23,16800.26,1996.73,2396,46294,43898
1203,595.28,16798.87,1998.12,3036,46454,43418
1204,595.33,16797.49,1999.51,2731,46347,43616
1205,595.38,16796.1,2000.89,2808,46024,43216
1206,595.43,16794.72,2002.28,2684,46272,43588
1207,595.47,16793.33,2003.66,2992,46112,43120
1208,595.52,16791.95,2005.05,2658,45807,43149
1209,595.57,16790.56,2006.43,2908,46163,43255
1210,595.62,16789.18,2007.82,3077,46817,43740
1211,595.67,16787.79,2009.2,3028,46542,43514
1212,595.72,16786.41,2010.58,2829,46081,43252
1213,595.77,16785.03,2011.96,3335,46481,43146
1214,595.82,16783.65,2013.35,2958,46036,43078
1215,595.87,16782.26,2014.73,2677,46373,43696
1216,595.92,16780.88,2016.11,2527,45911,43384
1217,595.97,16779.5,2017.49,3135,46216,43081
1218,596.01,16778.12,2018.87,2743,46060,43317
1219,596.06,16776.74,2020.25,2787,46401,43614
1220,596.11,16775.36,2021.63,2269,45560,43291
1221,596.16,16773.98,2023.01,2809,46730,43921
1222,596.21,16772.6,2024.39,3027,45953,42926
1223,596.26,16771.23,2025.77,2815,46153,43338
1224,596.31,16769.85,2027.15,3306,47190,43884
1225,596.36,16768.47,2028.52,2641,45985,43344
1226,596.41,16767.09,2029.9,2703,45752,43049
1227,596.46,16765.72,2031.28,2767,45808,43041
1228,596.5,16764.34,2032.65,2915,46556,43641
1229,596.55,16762.96,2034.03,3107,46910,43803
1230,596.6,16761.59,2035.4,2744,46200,43456
1231,596.65,16760.21,2036.78,2762,46153,43391
1232,596.7,16758.84,2038.15,2951,46416,43465
1233,596.75,16757.46,2039.53,3197,46118,42921
1234,596.8,16756.09,2040.9,3724,47127,43403
1235,596.85,16754.72,2042.28,3447,47066,43619
1236,596.9,16753.34,2043.65,2702,46126,43424
1237,596.94,16751.97,2045.02,2652,46043,43391
1238,596.99,16750.6,2046.39,3183,46882,43699
1239,597.04,16749.23,2047.76,3265,46268,43003
1240,597.09,16747.86,2049.14,3115,46260,43145
1241,597.14,16746.49,2050.51,2819,46035,43216
1242,597.19,16745.12,2051.88,2599,45630,43031
1243,597.24,16743.75,2053.25,3459,47248,43789
1244,597.29,16742.38,2054.62,3073,46169,43096
1245,597.34,16741.01,2055.99,2264,45226,42962
1246,597.38,16739.64,2057.35,2226,44699,42473
1247,597.43,16738.27,2058.72,3054,46817,43763
1248,597.48,16736.9,2060.09,2823,45845,43022
1249,597.53,16735.53,2061.46,2924,45922,42998
1250,597.58,16734.17,2062.83,2396,45705,43309
1251,597.63,16732.8,2064.19,2929,46468,43539
1252,597.68,16731.43,2065.56,3098,46099,43001
1253,597.73,16730.07,2066.92,2807,46179,43372
1254,597.77,16728.7,2068.29,2795,45946,43151
1255,597.82,16727.34,2069.65,3281,46174,42893
1256,597.87,16725.97,2071.02,2502,45868,43366
1257,597.92,16724.61,2072.38,2907,46312,43405
1258,597.97,16723.25,2073.75,3400,46339,42939
1259,598.02,16721.88,2075.11,2650,45805,43155
1260,598.07,16720.52,2076.47,2874,45752,42878
1261,598.12,16719.16,2077.84,2815,46103,43288
1262,598.17,16717.79,2079.2,3023,46211,43188
1263,598.21,16716.43,2080.56,3178,46088,42910
1264,598.26,16715.07,2081.92,2532,45389,42857
1265,598.31,16713.71,2083.28,2804,46115,43311
1266,598.36,16712.35,2084.64,2943,45693,42750
1267,598.41,16710.99,2086,2515,45539,43024
1268,598.46,16709.63,2087.36,2595,45105,42510
1269,598.51,16708.27,2088.72,3119,45672,42553
1270,598.55,16706.91,2090.08,3546,46786,43240
1271,598.6,16705.55,2091.44,3084,45641,42557
1272,598.65,16704.2,2092.8,3614,46934,43320
1273,598.7,16702.84,2094.15,2865,45699,42834
1274,598.75,16701.48,2095.51,3338,45941,42603
1275,598.8,16700.12,2096.87,2691,45559,42868
1276,598.85,16698.77,2098.22,2993,46326,43333
1277,598.9,16697.41,2099.58,2910,45532,42622
1278,598.94,16696.06,2100.94,2682,45733,43051
1279,598.99,16694.7,2102.29,2768,46134,43366
1280,599.04,16693.35,2103.64,3210,46025,42815
1281,599.09,16691.99,2105,3912,46634,42722
1282,599.14,16690.64,2106.35,3431,45658,42227
1283,599.19,16689.29,2107.71,2440,44948,42508
1284,599.24,16687.93,2109.06,3141,45768,42627
1285,599.28,16686.58,2110.41,3873,46257,42384
1286,599.33,16685.23,2111.76,2921,45514,42593
1287,599.38,16683.88,2113.12,2949,45414,42465
1288,599.43,16682.53,2114.47,5210,47869,42659
1289,599.48,16681.17,2115.82,2310,44629,42319
1290,599.53,16679.82,2117.17,2613,45064,42451
1291,599.58,16678.47,2118.52,3168,46343,43175
1292,599.62,16677.12,2119.87,2486,45689,43203
1293,599.67,16675.78,2121.22,3046,45984,42938
1294,599.72,16674.43,2122.57,3156,45878,42722
1295,599.77,16673.08,2123.91,2802,45210,42408
1296,599.82,16671.73,2125.26,2356,45524,43168
1297,599.87,16670.38,2126.61,3125,45425,42300
1298,599.91,16669.04,2127.96,2649,45224,42575
1299,599.96,16667.69,2129.3,2793,45466,42673
1300,600.01,16666.34,2130.65,3379,45517,42138
1301,600.06,16665,2132,3135,45079,41944
1302,600.11,16663.65,2133.34,2774,45409,42635
1303,600.16,16662.31,2134.69,2874,45280,42406
1304,600.21,16660.96,2136.03,2817,45348,42531
1305,600.25,16659.62,2137.38,2522,45222,42700
1306,600.3,16658.27,2138.72,3056,45288,42232
1307,600.35,16656.93,2140.06,2505,44681,42176
1308,600.4,16655.59,2141.41,3515,46226,42711
1309,600.45,16654.24,2142.75,2877,44974,42097
1310,600.5,16652.9,2144.09,2295,44714,42419
1311,600.54,16651.56,2145.43,2404,44263,41859
1312,600.59,16650.22,2146.77,2974,44760,41786
1313,600.64,16648.88,2148.11,2442,44208,41766
1314,600.69,16647.54,2149.46,3026,45548,42522
1315,600.74,16646.2,2150.8,2636,44979,42343
1316,600.79,16644.86,2152.14,3423,45552,42129
1317,600.83,16643.52,2153.47,2460,44417,41957
1318,600.88,16642.18,2154.81,2506,44887,42381
1319,600.93,16640.84,2156.15,3226,45313,42087
1320,600.98,16639.5,2157.49,2963,45325,42362
1321,601.03,16638.16,2158.83,3409,45574,42165
1322,601.08,16636.83,2160.16,3678,45705,42027
1323,601.12,16635.49,2161.5,2849,45058,42209
1324,601.17,16634.15,2162.84,2807,45472,42665
1325,601.22,16632.82,2164.17,3028,45359,42331
1326,601.27,16631.48,2165.51,2667,44912,42245
1327,601.32,16630.15,2166.85,2492,44599,42107
1328,601.37,16628.81,2168.18,2701,44818,42117
1329,601.41,16627.48,2169.51,2867,44968,42101
1330,601.46,16626.14,2170.85,2450,44805,42355
1331,601.51,16624.81,2172.18,2729,44582,41853
1332,601.56,16623.48,2173.52,2898,44489,41591
1333,601.61,16622.14,2174.85,2241,44357,42116
1334,601.66,16620.81,2176.18,2533,44887,42354
1335,601.7,16619.48,2177.51,4270,46312,42042
1336,601.75,16618.15,2178.84,2600,44461,41861
1337,601.8,16616.82,2180.17,3063,44628,41565
1338,601.85,16615.49,2181.51,3436,44897,41461
1339,601.9,16614.16,2182.84,3013,44371,41358
1340,601.94,16612.83,2184.17,2871,44465,41594
1341,601.99,16611.5,2185.49,2821,44688,41867
1342,602.04,16610.17,2186.82,2908,44638,41730
1343,602.09,16608.84,2188.15,2767,44844,42077
1344,602.14,16607.51,2189.48,3290,45110,41820
1345,602.19,16606.18,2190.81,2775,44430,41655
1346,602.23,16604.86,2192.14,2612,44134,41522
1347,602.28,16603.53,2193.46,2743,44286,41543
1348,602.33,16602.2,2194.79,3146,44824,41678
1349,602.38,16600.88,2196.12,2702,44448,41746
1350,602.43,16599.55,2197.44,2582,44434,41852
1351,602.47,16598.23,2198.77,3399,45154,41755
1352,602.52,16596.9,2200.09,2765,44659,41894
1353,602.57,16595.58,2201.42,2955,44486,41531
1354,602.62,16594.25,2202.74,2980,44381,41401
1355,602.67,16592.93,2204.06,3266,44697,41431
1356,602.71,16591.6,2205.39,2828,44827,41999
1357,602.76,16590.28,2206.71,3267,44944,41677
1358,602.81,16588.96,2208.03,3803,45578,41775
1359,602.86,16587.64,2209.36,2865,44366,41501
1360,602.91,16586.32,2210.68,2605,43745,41140
1361,602.95,16584.99,2212,2850,43630,40780
1362,603,16583.67,2213.32,2341,43375,41034
1363,603.05,16582.35,2214.64,2748,44389,41641
1364,603.1,16581.03,2215.96,2303,43656,41353
1365,603.15,16579.71,2217.28,2717,43716,40999
1366,603.19,16578.39,2218.6,2532,43918,41386
1367,603.24,16577.08,2219.92,2833,43958,41125
1368,603.29,16575.76,2221.24,2915,44058,41143
1369,603.34,16574.44,2222.55,2661,44091,41430
1370,603.39,16573.12,2223.87,2477,43975,41498
1371,603.43,16571.8,2225.19,3338,44424,41086
1372,603.48,16570.49,2226.51,2640,43284,40644
1373,603.53,16569.17,2227.82,4342,45346,41004
1374,603.58,16567.85,2229.14,2330,43399,41069
1375,603.63,16566.54,2230.45,2515,43412,40897
1376,603.67,16565.22,2231.77,2807,44079,41272
1377,603.72,16563.91,2233.08,2636,43221,40585
1378,603.77,16562.59,2234.4,2805,43403,40598
1379,603.82,16561.28,2235.71,3065,43833,40768
1380,603.87,16559.97,2237.03,2734,43460,40726
1381,603.91,16558.65,2238.34,2630,43329,40699
1382,603.96,16557.34,2239.65,3154,44342,41188
1383,604.01,16556.03,2240.96,2960,43872,40912
1384,604.06,16554.72,2242.28,3164,43926,40762
1385,604.11,16553.41,2243.59,2540,43458,40918
1386,604.15,16552.09,2244.9,2789,43662,40873
1387,604.2,16550.78,2246.21,2983,43745,40762
1388,604.25,16549.47,2247.52,2775,43726,40951
1389,604.3,16548.16,2248.83,3169,43868,40699
1390,604.34,16546.85,2250.14,3074,44212,41138
1391,604.39,16545.55,2251.45,2698,43182,40484
1392,604.44,16544.24,2252.76,3379,44161,40782
1393,604.49,16542.93,2254.06,2705,43349,40644
1394,604.54,16541.62,2255.37,2539,43139,40600
1395,604.58,16540.31,2256.68,3602,44467,40865
1396,604.63,16539.01,2257.99,2525,42914,40389
1397,604.68,16537.7,2259.29,2926,43139,40213
1398,604.73,16536.39,2260.6,3130,43561,40431
1399,604.77,16535.09,2261.91,3187,43777,40590
1400,604.82,16533.78,2263.21,2560,42753,40193
1401,604.87,16532.48,2264.52,2457,43041,40584
1402,604.92,16531.17,2265.82,2982,43503,40521
1403,604.97,16529.87,2267.12,2758,42928,40170
1404,605.01,16528.56,2268.43,2860,43075,40215
1405,605.06,16527.26,2269.73,2516,42860,40344
1406,605.11,16525.96,2271.03,2615,43112,40497
1407,605.16,16524.65,2272.34,2634,43173,40539
1408,605.2,16523.35,2273.64,2233,42349,40116
1409,605.25,16522.05,2274.94,2615,42946,40331
1410,605.3,16520.75,2276.24,2559,42720,40161
1411,605.35,16519.45,2277.54,2384,42868,40484
1412,605.39,16518.15,2278.84,3171,43518,40347
1413,605.44,16516.85,2280.14,2599,42592,39993
1414,605.49,16515.55,2281.44,2859,43628,40769
1415,605.54,16514.25,2282.74,2609,42665,40056
1416,605.59,16512.95,2284.04,2749,43138,40389
1417,605.63,16511.65,2285.34,2502,42774,40272
1418,605.68,16510.35,2286.64,2389,42531,40142
1419,605.73,16509.06,2287.94,2827,43017,40190
1420,605.78,16507.76,2289.23,3222,43437,40215
1421,605.82,16506.46,2290.53,2552,42976,40424
1422,605.87,16505.16,2291.83,2674,42734,40060
1423,605.92,16503.87,2293.12,2559,42623,40064
1424,605.97,16502.57,2294.42,2639,42339,39700
1425,606.01,16501.28,2295.72,2882,43526,40644
1426,606.06,16499.98,2297.01,3282,43232,39950
1427,606.11,16498.69,2298.3,3106,43094,39988
1428,606.16,16497.39,2299.6,2589,42533,39944
1429,606.2,16496.1,2300.89,2684,42408,39724
1430,606.25,16494.81,2302.19,2530,42460,39930
1431,606.3,16493.51,2303.48,2686,42770,40084
1432,606.35,16492.22,2304.77,3205,43128,39923
1433,606.39,16490.93,2306.06,2640,42005,39365
1434,606.44,16489.64,2307.35,2836,42652,39816
1435,606.49,16488.35,2308.65,2705,42464,39759
1436,606.54,16487.06,2309.94,2455,41994,39539
1437,606.58,16485.76,2311.23,2880,42273,39393
1438,606.63,16484.47,2312.52,2862,42468,39606
1439,606.68,16483.19,2313.81,2506,41646,39140
1440,606.73,16481.9,2315.1,2891,42085,39194
1441,606.77,16480.61,2316.39,2927,42104,39177
1442,606.82,16479.32,2317.67,3052,42394,39342
1443,606.87,16478.03,2318.96,2973,42027,39054
1444,606.92,16476.74,2320.25,2748,41922,39174
1445,606.96,16475.46,2321.54,2627,41548,38921
1446,607.01,16474.17,2322.82,2927,42091,39164
1447,607.06,16472.88,2324.11,2956,42189,39233
1448,607.11,16471.6,2325.4,2687,42489,39802
1449,607.15,16470.31,2326.68,2366,42154,39788
1450,607.2,16469.03,2327.97,2684,43160,40476
1451,607.25,16467.74,2329.25,2471,43963,41492
1452,607.3,16466.46,2330.54,3003,43837,40834
1453,607.34,16465.17,2331.82,2889,42209,39320
1454,607.39,16463.89,2333.1,3183,42362,39179
1455,607.44,16462.6,2334.39,2715,41334,38619
1456,607.48,16461.32,2335.67,3308,41988,38680
1457,607.53,16460.04,2336.95,3012,41946,38934
1458,607.58,16458.76,2338.24,2561,41205,38644
1459,607.63,16457.48,2339.52,3405,41767,38362
1460,607.67,16456.19,2340.8,2308,41032,38724
1461,607.72,16454.91,2342.08,2920,41670,38750
1462,607.77,16453.63,2343.36,2654,40850,38196
1463,607.82,16452.35,2344.64,2601,41224,38623
1464,607.86,16451.07,2345.92,2818,41295,38477
1465,607.91,16449.79,2347.2,2831,41167,38336
1466,607.96,16448.52,2348.48,3148,41820,38672
1467,608,16447.24,2349.76,2619,41057,38438
1468,608.05,16445.96,2351.03,2606,40787,38181
1469,608.1,16444.68,2352.31,2866,41505,38639
1470,608.15,16443.4,2353.59,2600,41179,38579
1471,608.19,16442.13,2354.87,2807,41335,38528
1472,608.24,16440.85,2356.14,3257,41420,38163
1473,608.29,16439.57,2357.42,3032,41001,37969
1474,608.34,16438.3,2358.69,2851,41028,38177
1475,608.38,16437.02,2359.97,2348,40790,38442
1476,608.43,16435.75,2361.24,2903,41310,38407
1477,608.48,16434.47,2362.52,2934,41059,38125
1478,608.52,16433.2,2363.79,2650,40930,38280
1479,608.57,16431.93,2365.07,2735,41172,38437
1480,608.62,16430.65,2366.34,2689,40483,37794
1481,608.67,16429.38,2367.61,3829,42224,38395
1482,608.71,16428.11,2368.88,3190,41911,38721
1483,608.76,16426.84,2370.16,2410,40634,38224
1484,608.81,16425.56,2371.43,3114,40850,37736
1485,608.85,16424.29,2372.7,2863,41182,38319
1486,608.9,16423.02,2373.97,3159,41668,38509
1487,608.95,16421.75,2375.24,2932,41073,38141
1488,609,16420.48,2376.51,2914,41173,38259
1489,609.04,16419.21,2377.78,2615,41250,38635
1490,609.09,16417.94,2379.05,2547,40998,38451
1491,609.14,16416.67,2380.32,2755,40875,38120
1492,609.18,16415.4,2381.59,2760,40858,38098
1493,609.23,16414.14,2382.86,3515,41743,38228
1494,609.28,16412.87,2384.12,2927,41078,38151
1495,609.33,16411.6,2385.39,2884,41505,38621
1496,609.37,16410.33,2386.66,3491,41566,38075
1497,609.42,16409.07,2387.92,2892,40817,37925
1498,609.47,16407.8,2389.19,2798,41439,38641
1499,609.51,16406.54,2390.46,2814,40645,37831
1500,609.56,16405.27,2391.72,2759,41113,38354
1501,609.61,16404.01,2392.99,3119,41241,38122
1502,609.65,16402.74,2394.25,2606,41061,38455
1503,609.7,16401.48,2395.51,2611,40666,38055
1504,609.75,16400.21,2396.78,2766,41001,38235
1505,609.8,16398.95,2398.04,2714,41389,38675
1506,609.84,16397.69,2399.3,2627,40966,38339
1507,609.89,16396.43,2400.57,3098,41438,38340
1508,609.94,16395.16,2401.83,2643,40589,37946
1509,609.98,16393.9,2403.09,2651,40459,37808
1510,610.03,16392.64,2404.35,3828,41728,37900
1511,610.08,16391.38,2405.61,2877,40759,37882
1512,610.12,16390.12,2406.87,2746,41147,38401
1513,610.17,16388.86,2408.13,2857,40956,38099
1514,610.22,16387.6,2409.39,2715,40787,38072
1515,610.26,16386.34,2410.65,2869,40868,37999
1516,610.31,16385.08,2411.91,3171,40822,37651
1517,610.36,16383.82,2413.17,2407,40446,38039
1518,610.41,16382.56,2414.43,3115,40900,37785
1519,610.45,16381.31,2415.69,2489,39756,37267
1520,610.5,16380.05,2416.94,3451,41011,37560
1521,610.55,16378.79,2418.2,2853,40732,37879
1522,610.59,16377.53,2419.46,2612,40342,37730
1523,610.64,16376.28,2420.71,2452,40840,38388
1524,610.69,16375.02,2421.97,3053,41427,38374
1525,610.73,16373.77,2423.22,2674,40944,38270
1526,610.78,16372.51,2424.48,2787,40728,37941
1527,610.83,16371.26,2425.73,3029,40767,37738
1528,610.87,16370,2426.99,2869,40599,37730
1529,610.92,16368.75,2428.24,2622,40297,37675
1530,610.97,16367.5,2429.5,2776,40717,37941
1531,611.01,16366.24,2430.75,2575,40555,37980
1532,611.06,16364.99,2432,3077,40877,37800
1533,611.11,16363.74,2433.25,2650,40843,38193
1534,611.15,16362.49,2434.51,3202,41276,38074
1535,611.2,16361.24,2435.76,4127,42079,37952
1536,611.25,16359.98,2437.01,3048,41404,38356
1537,611.29,16358.73,2438.26,3075,40818,37743
1538,611.34,16357.48,2439.51,4109,41677,37568
1539,611.39,16356.23,2440.76,2743,40698,37955
1540,611.43,16354.98,2442.01,2528,40593,38065
1541,611.48,16353.74,2443.26,3047,41080,38033
1542,611.53,16352.49,2444.51,2675,40332,37657
1543,611.57,16351.24,2445.75,2934,40924,37990
1544,611.62,16349.99,2447,3323,40598,37275
1545,611.67,16348.74,2448.25,3107,41092,37985
1546,611.71,16347.5,2449.5,2444,39966,37522
1547,611.76,16346.25,2450.74,2758,40209,37451
1548,611.81,16345,2451.99,2835,40785,37950
1549,611.85,16343.76,2453.24,3003,40838,37835
1550,611.9,16342.51,2454.48,3225,40509,37284
1551,611.95,16341.27,2455.73,2644,39948,37304
1552,611.99,16340.02,2456.97,3196,40478,37282
1553,612.04,16338.78,2458.22,2565,40268,37703
1554,612.09,16337.53,2459.46,3351,41063,37712
1555,612.13,16336.29,2460.7,2861,40352,37491
1556,612.18,16335.05,2461.95,2455,40014,37559
1557,612.23,16333.8,2463.19,2961,40536,37575
1558,612.27,16332.56,2464.43,2500,39737,37237
1559,612.32,16331.32,2465.67,3410,40745,37335
1560,612.37,16330.08,2466.92,2814,40636,37822
1561,612.41,16328.84,2468.16,2940,40988,38048
1562,612.46,16327.6,2469.4,3523,40746,37223
1563,612.51,16326.35,2470.64,2772,40191,37419
1564,612.55,16325.11,2471.88,2703,40142,37439
1565,612.6,16323.88,2473.12,3227,40876,37649
1566,612.65,16322.64,2474.36,2676,40658,37982
1567,612.69,16321.4,2475.6,3299,41015,37716
1568,612.74,16320.16,2476.83,2563,40575,38012
1569,612.79,16318.92,2478.07,3055,40626,37571
1570,612.83,16317.68,2479.31,2871,40275,37404
1571,612.88,16316.45,2480.55,3243,41107,37864
1572,612.93,16315.21,2481.78,2483,39732,37249
1573,612.97,16313.97,2483.02,2566,40281,37715
1574,613.02,16312.74,2484.26,2921,40100,37179
1575,613.06,16311.5,2485.49,2726,40155,37429
1576,613.11,16310.27,2486.73,3467,41051,37584
1577,613.16,16309.03,2487.96,12800,49861,37061
1578,613.2,16307.8,2489.2,2728,40109,37381
1579,613.25,16306.56,2490.43,2962,40454,37492
1580,613.3,16305.33,2491.66,2832,40215,37383
1581,613.34,16304.09,2492.9,2760,40344,37584
1582,613.39,16302.86,2494.13,2869,40044,37175
1583,613.44,16301.63,2495.36,3051,40352,37301
1584,613.48,16300.4,2496.6,3103,40205,37102
1585,613.53,16299.16,2497.83,2439,39728,37289
1586,613.57,16297.93,2499.06,3212,41368,38156
1587,613.62,16296.7,2500.29,2578,40582,38004
1588,   ,   ,   ,2808,40396,37588
1589,   ,   ,   ,2780,40272,37492
1590,   ,   ,   ,3000,40908,37908
1591,   ,   ,   ,3208,40743,37535
1592,   ,   ,   ,3291,40642,37351
1593,   ,   ,   ,2937,40659,37722
1594,   ,   ,   ,3219,40722,37503
1595,   ,   ,   ,2689,40115,37426
1596,   ,   ,   ,2327,40290,37963
1597,   ,   ,   ,2688,40156,37468
1598,   ,   ,   ,2716,39610,36894
1599,   ,   ,   ,3511,41186,37675
1600,   ,   ,   ,3747,40910,37163
1601,   ,   ,   ,2525,39848,37323
1602,   ,   ,   ,2946,40580,37634
1603,   ,   ,   ,2517,39788,37271
1604,   ,   ,   ,3440,40928,37488
1605,   ,   ,   ,2708,40212,37504
1606,   ,   ,   ,3099,40438,37339
1607,   ,   ,   ,2831,40136,37305
1608,   ,   ,   ,3106,40617,37511
1609,   ,   ,   ,2644,40146,37502
1610,   ,   ,   ,2950,40275,37325
1611,   ,   ,   ,2769,40033,37264
1612,   ,   ,   ,2631,39460,36829
1613,   ,   ,   ,2980,40065,37085
1614,   ,   ,   ,2592,39684,37092
1615,   ,   ,   ,2911,40115,37204
1616,   ,   ,   ,2800,39934,37134
1617,   ,   ,   ,2981,39663,36682
1618,   ,   ,   ,3158,40330,37172
1619,   ,   ,   ,2755,39673,36918
1620,   ,   ,   ,2694,39785,37091
1621,   ,   ,   ,2993,39863,36870
1622,   ,   ,   ,3088,40107,37019
1623,   ,   ,   ,2881,39496,36615
1624,   ,   ,   ,3962,41131,37169
1625,   ,   ,   ,3230,39940,36710
1626,   ,   ,   ,2883,39694,36811
1627,   ,   ,   ,2823,39898,37075
1628,   ,   ,   ,2993,39568,36575
1629,   ,   ,   ,2523,39063,36540
1630,   ,   ,   ,5655,41650,35995
1631,   ,   ,   ,2767,39849,37082
1632,   ,   ,   ,2640,39414,36774
1633,   ,   ,   ,2958,40400,37442
1634,   ,   ,   ,3055,39836,36781
1635,   ,   ,   ,2251,39343,37092
1636,   ,   ,   ,2879,39823,36944
1637,   ,   ,   ,3615,40686,37071
1638,   ,   ,   ,2393,39498,37105
1639,   ,   ,   ,2977,40197,37220
1640,   ,   ,   ,2735,39353,36618
1641,   ,   ,   ,3289,40540,37251
1642,   ,   ,   ,3162,39951,36789
1643,   ,   ,   ,3084,39865,36781
1644,   ,   ,   ,2571,39712,37141
1645,   ,   ,   ,2814,39700,36886
1646,   ,   ,   ,2649,39477,36828
1647,   ,   ,   ,3018,39830,36812
1648,   ,   ,   ,2884,39450,36566
1649,   ,   ,   ,3309,40067,36758
1650,   ,   ,   ,2973,39510,36537
1651,   ,   ,   ,2713,39672,36959
1652,   ,   ,   ,3115,40042,36927
1653,   ,   ,   ,2374,39048,36674
1654,   ,   ,   ,3159,40467,37308
1655,   ,   ,   ,2491,39722,37231
1656,   ,   ,   ,3674,40424,36750
1657,   ,   ,   ,2980,39773,36793
1658,   ,   ,   ,2675,39506,36831
1659,   ,   ,   ,3410,39860,36450
1660,   ,   ,   ,3173,39490,36317
1661,   ,   ,   ,2975,39561,36586
1662,   ,   ,   ,2904,40011,37107
1663,   ,   ,   ,3383,39661,36278
1664,   ,   ,   ,2989,40067,37078
1665,   ,   ,   ,3226,39766,36540
1666,   ,   ,   ,2610,39004,36394
1667,   ,   ,   ,3118,39833,36715
1668,   ,   ,   ,3004,39484,36480
1669,   ,   ,   ,2760,38958,36198
1670,   ,   ,   ,3194,40254,37060
1671,   ,   ,   ,2739,39522,36783
1672,   ,   ,   ,3018,39845,36827
1673,   ,   ,   ,2473,39625,37152
1674,   ,   ,   ,3319,39833,36514
1675,   ,   ,   ,2903,39606,36703
1676,   ,   ,   ,3744,39911,36167
1677,   ,   ,   ,2286,39204,36918
1678,   ,   ,   ,2655,39267,36612
1679,   ,   ,   ,3260,40047,36787
1680,   ,   ,   ,3092,40041,36949
1681,   ,   ,   ,2626,39401,36775
1682,   ,   ,   ,2751,39749,36998
1683,   ,   ,   ,2646,39200,36554
1684,   ,   ,   ,3754,40627,36873
1685,   ,   ,   ,2780,40264,37484
1686,   ,   ,   ,2607,39790,37183
1687,   ,   ,   ,2807,40174,37367
1688,   ,   ,   ,3021,40338,37317
1689,   ,   ,   ,2930,40330,37400
1690,   ,   ,   ,2902,40015,37113
1691,   ,   ,   ,4076,41546,37470
1692,   ,   ,   ,3282,40502,37220
1693,   ,   ,   ,2983,40696,37713
1694,   ,   ,   ,3370,40645,37275
1695,   ,   ,   ,3078,40744,37666
1696,   ,   ,   ,2711,40000,37289
1697,   ,   ,   ,2665,40623,37958
1698,   ,   ,   ,3002,40568,37566
1699,   ,   ,   ,2916,40454,37538
1700,   ,   ,   ,2718,40371,37653
1701,   ,   ,   ,2919,40593,37674
1702,   ,   ,   ,3001,41182,38181
1703,   ,   ,   ,2759,40375,37616
1704,   ,   ,   ,2495,40460,37965
1705,   ,   ,   ,2707,40287,37580
1706,   ,   ,   ,2974,40616,37642
1707,   ,   ,   ,2616,40346,37730
1708,   ,   ,   ,3238,41318,38080
1709,   ,   ,   ,2892,41019,38127
1710,   ,   ,   ,2989,40880,37891
1711,   ,   ,   ,3270,41067,37797
1712,   ,   ,   ,2822,40811,37989
1713,   ,   ,   ,3065,40784,37719
1714,   ,   ,   ,3005,40800,37795
1715,   ,   ,   ,2607,40483,37876
1716,   ,   ,   ,2578,40751,38173
1717,   ,   ,   ,2587,40341,37754
1718,   ,   ,   ,2881,41183,38302
1719,   ,   ,   ,3020,40769,37749
1720,   ,   ,   ,2851,40936,38085
1721,   ,   ,   ,3041,41340,38299
1722,   ,   ,   ,4615,43543,38928
1723,   ,   ,   ,2927,41696,38769
1724,   ,   ,   ,2564,40866,38302
1725,   ,   ,   ,2897,41465,38568
1726,   ,   ,   ,2816,41000,38184
1727,   ,   ,   ,3532,41858,38326
1728,   ,   ,   ,3427,41651,38224
1729,   ,   ,   ,2817,40611,37794
1730,   ,   ,   ,3350,41510,38160
1731,   ,   ,   ,3022,41465,38443
1732,   ,   ,   ,2999,40904,37905
1733,   ,   ,   ,3183,41364,38181
1734,   ,   ,   ,3124,40965,37841
1735,   ,   ,   ,2895,40494,37599
1736,   ,   ,   ,2822,41009,38187
1737,   ,   ,   ,3064,41328,38264
1738,   ,   ,   ,5112,42775,37663
1739,   ,   ,   ,3191,41806,38615
1740,   ,   ,   ,4627,42421,37794
1741,   ,   ,   ,2996,41184,38188
1742,   ,   ,   ,2907,41306,38399
1743,   ,   ,   ,2981,41176,38195
1744,   ,   ,   ,3030,41189,38159
1745,   ,   ,   ,2771,41043,38272
1746,   ,   ,   ,2767,40497,37730
1747,   ,   ,   ,3121,41095,37974
1748,   ,   ,   ,2982,40303,37321
1749,   ,   ,   ,2810,40413,37603
1750,   ,   ,   ,3140,40476,37336
1751,   ,   ,   ,3566,41441,37875
1752,   ,   ,   ,3510,41036,37526
1753,   ,   ,   ,3174,41046,37872
1754,   ,   ,   ,2798,40033,37235
1755,   ,   ,   ,2607,39924,37317
1756,   ,   ,   ,3158,40505,37347
1757,   ,   ,   ,2941,39916,36975
1758,   ,   ,   ,2919,40463,37544
1759,   ,   ,   ,2646,39731,37085
1760,   ,   ,   ,3472,40572,37100
1761,   ,   ,   ,2762,39895,37133
1762,   ,   ,   ,3207,40348,37141
1763,   ,   ,   ,3012,40253,37241
1764,   ,   ,   ,2680,39573,36893
1765,   ,   ,   ,3475,40176,36701
1766,   ,   ,   ,3127,39934,36807
1767,   ,   ,   ,2675,40021,37346
1768,   ,   ,   ,2376,39076,36700
1769,   ,   ,   ,2276,38985,36709
1770,   ,   ,   ,2185,38828,36643
1771,   ,   ,   ,3271,40036,36765
1772,   ,   ,   ,2890,39896,37006
1773,   ,   ,   ,3266,39515,36249
1774,   ,   ,   ,2330,39070,36740
1775,   ,   ,   ,2879,40000,37121
1776,   ,   ,   ,3622,40127,36505
1777,   ,   ,   ,3127,39465,36338
1778,   ,   ,   ,2608,38852,36244
1779,   ,   ,   ,2579,39186,36607
1780,   ,   ,   ,2975,39508,36533
1781,   ,   ,   ,2915,39308,36393
1782,   ,   ,   ,2954,38879,35925
1783,   ,   ,   ,2795,38504,35709
1784,   ,   ,   ,2934,39031,36097
1785,   ,   ,   ,2738,38591,35853
1786,   ,   ,   ,3074,39296,36222
1787,   ,   ,   ,2404,38414,36010
1788,   ,   ,   ,2933,38807,35874
1789,   ,   ,   ,3032,38887,35855
1790,   ,   ,   ,2586,38280,35694
1791,   ,   ,   ,3262,39856,36594
1792,   ,   ,   ,3208,38386,35178
1793,   ,   ,   ,2701,38764,36063
1794,   ,   ,   ,3055,38803,35748
1795,   ,   ,   ,2951,38728,35777
1796,   ,   ,   ,2904,38536,35632
1797,   ,   ,   ,3209,38486,35277
1798,   ,   ,   ,3150,38504,35354
1799,   ,   ,   ,4085,39370,35285
1800,   ,   ,   ,2958,37694,34736
1801,   ,   ,   ,3969,39137,35168
1802,   ,   ,   ,3291,38696,35405
1803,   ,   ,   ,2539,37620,35081
1804,   ,   ,   ,2835,38266,35431
1805,   ,   ,   ,2774,37053,34279
1806,   ,   ,   ,3236,37740,34504
1807,   ,   ,   ,2573,37720,35147
1808,   ,   ,   ,2234,37241,35007
1809,   ,   ,   ,2871,37543,34672
1810,   ,   ,   ,2839,37796,34957
1811,   ,   ,   ,3134,38212,35078
1812,   ,   ,   ,2926,37498,34572
1813,   ,   ,   ,2662,37556,34894
1814,   ,   ,   ,2535,37181,34646
1815,   ,   ,   ,2803,37338,34535
1816,   ,   ,   ,2990,37856,34866
1817,   ,   ,   ,3105,37202,34097
1818,   ,   ,   ,2866,37314,34448
1819,   ,   ,   ,2711,36973,34262
1820,   ,   ,   ,3187,37647,34460
1821,   ,   ,   ,2813,37580,34767
1822,   ,   ,   ,3186,37861,34675
1823,   ,   ,   ,2831,37368,34537
1824,   ,   ,   ,2321,36993,34672
1825,   ,   ,   ,2368,36676,34308
1826,   ,   ,   ,3463,38427,34964
1827,   ,   ,   ,2957,37313,34356
1828,   ,   ,   ,2750,37088,34338
1829,   ,   ,   ,2995,37214,34219
1830,   ,   ,   ,2930,37571,34641
1831,   ,   ,   ,2960,37274,34314
1832,   ,   ,   ,3034,36980,33946
1833,   ,   ,   ,2665,37412,34747
1834,   ,   ,   ,2656,36639,33983
1835,   ,   ,   ,3287,37036,33749
1836,   ,   ,   ,3194,37288,34094
1837,   ,   ,   ,2660,36414,33754
1838,   ,   ,   ,2827,37218,34391
1839,   ,   ,   ,3441,37950,34509
1840,   ,   ,   ,3509,37800,34291
1841,   ,   ,   ,2456,36212,33756
1842,   ,   ,   ,2665,37010,34345
1843,   ,   ,   ,3086,36978,33892
1844,   ,   ,   ,2700,36374,33674
1845,   ,   ,   ,2596,36211,33615
1846,   ,   ,   ,2587,36342,33755
1847,   ,   ,   ,2636,36226,33590
1848,   ,   ,   ,3153,36869,33716
1849,   ,   ,   ,2535,37006,34471
1850,   ,   ,   ,2775,36957,34182
1851,   ,   ,   ,3099,37034,33935
1852,   ,   ,   ,2814,36872,34058
1853,   ,   ,   ,3099,36880,33781
1854,   ,   ,   ,2989,36678,33689
1855,   ,   ,   ,2884,36735,33851
1856,   ,   ,   ,2582,36207,33625
1857,   ,   ,   ,2355,36824,34469
1858,   ,   ,   ,2712,36238,33526
1859,   ,   ,   ,2852,36364,33512
1860,   ,   ,   ,2686,36593,33907
1861,   ,   ,   ,3213,37564,34351
1862,   ,   ,   ,3151,37322,34171
1863,   ,   ,   ,3125,36661,33536
1864,   ,   ,   ,2784,36246,33462
1865,   ,   ,   ,2665,36490,33825
1866,   ,   ,   ,2710,36396,33686
1867,   ,   ,   ,2814,36084,33270
1868,   ,   ,   ,2970,36758,33788
1869,   ,   ,   ,3111,36569,33458
1870,   ,   ,   ,2564,35963,33399
1871,   ,   ,   ,2930,36475,33545
1872,   ,   ,   ,3091,36704,33613
1873,   ,   ,   ,2616,36143,33527
1874,   ,   ,   ,2616,36559,33943
1875,   ,   ,   ,2797,36793,33996
1876,   ,   ,   ,3105,36905,33800
1877,   ,   ,   ,2646,36118,33472
1878,   ,   ,   ,3370,36993,33623
1879,   ,   ,   ,2812,36515,33703
1880,   ,   ,   ,2647,36771,34124
1881,   ,   ,   ,2296,35806,33510
1882,   ,   ,   ,3347,36659,33312
1883,   ,   ,   ,2569,35944,33375
1884,   ,   ,   ,3011,36416,33405
1885,   ,   ,   ,2483,35492,33009
1886,   ,   ,   ,3050,36184,33134
1887,   ,   ,   ,2829,36294,33465
1888,   ,   ,   ,2731,35905,33174
1889,   ,   ,   ,2484,35201,32717
1890,   ,   ,   ,2542,35902,33360
1891,   ,   ,   ,2891,35928,33037
1892,   ,   ,   ,2748,36411,33663
1893,   ,   ,   ,2798,36016,33218
1894,   ,   ,   ,2634,36169,33535
1895,   ,   ,   ,2974,36230,33256
1896,   ,   ,   ,2852,36308,33456
1897,   ,   ,   ,2840,36056,33216
1898,   ,   ,   ,2740,35799,33059
1899,   ,   ,   ,2448,35709,33261
1900,   ,   ,   ,2960,35744,32784
1901,   ,   ,   ,2718,36032,33314
1902,   ,   ,   ,3089,36206,33117
1903,   ,   ,   ,3213,36189,32976
1904,   ,   ,   ,3192,36238,33046
1905,   ,   ,   ,4510,37806,33296
1906,   ,   ,   ,3122,36094,32972
1907,   ,   ,   ,2415,35364,32949
1908,   ,   ,   ,3252,36346,33094
1909,   ,   ,   ,3051,36024,32973
1910,   ,   ,   ,2862,35992,33130
1911,   ,   ,   ,2816,35692,32876
1912,   ,   ,   ,3026,36092,33066
1913,   ,   ,   ,2931,36207,33276
1914,   ,   ,   ,3087,36249,33162
1915,   ,   ,   ,3223,36470,33247
1916,   ,   ,   ,3267,36282,33015
1917,   ,   ,   ,2449,35517,33068
1918,   ,   ,   ,2358,35171,32813
1919,   ,   ,   ,3056,35742,32686
1920,   ,   ,   ,2686,35690,33004
1921,   ,   ,   ,2668,35795,33127
1922,   ,   ,   ,3157,36221,33064
1923,   ,   ,   ,3068,35920,32852
1924,   ,   ,   ,2904,35637,32733
1925,   ,   ,   ,2186,35061,32875
1926,   ,   ,   ,3015,35586,32571
1927,   ,   ,   ,2881,35930,33049
1928,   ,   ,   ,2856,35871,33015
1929,   ,   ,   ,3139,35760,32621
1930,   ,   ,   ,3079,36380,33301
1931,   ,   ,   ,2940,35651,32711
1932,   ,   ,   ,2571,35530,32959
1933,   ,   ,   ,3228,36366,33138
1934,   ,   ,   ,2728,35607,32879
1935,   ,   ,   ,2308,35808,33500
1936,   ,   ,   ,2342,34744,32402
1937,   ,   ,   ,2228,34809,32581
1938,   ,   ,   ,2976,35901,32925
1939,   ,   ,   ,2538,35328,32790
1940,   ,   ,   ,2987,35741,32754
1941,   ,   ,   ,2925,35838,32913
1942,   ,   ,   ,2681,35364,32683
1943,   ,   ,   ,2482,35102,32620
1944,   ,   ,   ,2786,35347,32561
1945,   ,   ,   ,2750,35337,32587
1946,   ,   ,   ,3179,35336,32157
1947,   ,   ,   ,3019,35848,32829
1948,   ,   ,   ,2630,35462,32832
1949,   ,   ,   ,2926,35388,32462
1950,   ,   ,   ,2846,35497,32651
1951,   ,   ,   ,3163,35747,32584
1952,   ,   ,   ,2607,35131,32524
1953,   ,   ,   ,2628,35649,33021
1954,   ,   ,   ,3274,35814,32540
1955,   ,   ,   ,2467,34901,32434
1956,   ,   ,   ,3069,35430,32361
1957,   ,   ,   ,3154,35605,32451
1958,   ,   ,   ,2692,35309,32617
1959,   ,   ,   ,2630,35040,32410
1960,   ,   ,   ,2625,34255,31630
1961,   ,   ,   ,2981,35640,32659
1962,   ,   ,   ,2381,34788,32407
1963,   ,   ,   ,2916,34904,31988
1964,   ,   ,   ,2919,35319,32400
1965,   ,   ,   ,2897,35274,32377
1966,   ,   ,   ,2931,34922,31991
1967,   ,   ,   ,3640,35717,32077
1968,   ,   ,   ,3205,35700,32495
1969,   ,   ,   ,2860,34840,31980
1970,   ,   ,   ,3790,36162,32372
1971,   ,   ,   ,2417,34796,32379
1972,   ,   ,   ,3340,35484,32144
1973,   ,   ,   ,2721,34632,31911
1974,   ,   ,   ,3007,35313,32306
1975,   ,   ,   ,3026,35070,32044
1976,   ,   ,   ,3015,34776,31761
1977,   ,   ,   ,3055,34774,31719
1978,   ,   ,   ,3211,35116,31905
1979,   ,   ,   ,2583,34493,31910
1980,   ,   ,   ,2885,34652,31767
1981,   ,   ,   ,3167,34892,31725
1982,   ,   ,   ,2501,34582,32081
1983,   ,   ,   ,2581,34423,31842
1984,   ,   ,   ,2913,34689,31776
1985,   ,   ,   ,2856,34431,31575
1986,   ,   ,   ,2831,34240,31409
1987,   ,   ,   ,4367,35781,31414
1988,   ,   ,   ,3297,35095,31798
1989,   ,   ,   ,2957,34651,31694
1990,   ,   ,   ,2687,34889,32202
1991,   ,   ,   ,3230,34756,31526
1992,   ,   ,   ,2711,34469,31758
1993,   ,   ,   ,2406,33966,31560
1994,   ,   ,   ,2656,34014,31358
1995,   ,   ,   ,2780,34670,31890
1996,   ,   ,   ,3357,34635,31278
1997,   ,   ,   ,2506,33814,31308
1998,   ,   ,   ,2889,34060,31171
1999,   ,   ,   ,2893,34641,31748
2000,   ,   ,   ,2644,34241,31597
2001,   ,   ,   ,5003,36511,31508
2002,   ,   ,   ,3304,34621,31317
2003,   ,   ,   ,2305,33554,31249
2004,   ,   ,   ,2398,33812,31414
2005,   ,   ,   ,3384,34471,31087
2006,   ,   ,   ,3390,34563,31173
2007,   ,   ,   ,3004,34326,31322
2008,   ,   ,   ,2858,34303,31445
2009,   ,   ,   ,3010,33852,30842
2010,   ,   ,   ,2637,33842,31205
2011,   ,   ,   ,2920,34396,31476
2012,   ,   ,   ,3142,34347,31205
2013,   ,   ,   ,3281,34625,31344
2014,   ,   ,   ,3540,34867,31327
2015,   ,   ,   ,2502,33630,31128
2016,   ,   ,   ,2620,33781,31161
2017,   ,   ,   ,3153,34398,31245
2018,   ,   ,   ,2440,33642,31202
2019,   ,   ,   ,2890,34504,31614
2020,   ,   ,   ,2718,34012,31294
2021,   ,   ,   ,2876,33761,30885
2022,   ,   ,   ,2929,33704,30775
2023,   ,   ,   ,2947,33686,30739
2024,   ,   ,   ,2559,33788,31229
2025,   ,   ,   ,2884,34040,31156
2026,   ,   ,   ,2726,34106,31380
2027,   ,   ,   ,2564,33510,30946
2028,   ,   ,   ,2866,33974,31108
2029,   ,   ,   ,2783,33880,31097
2030,   ,   ,   ,2423,34047,31624
2031,   ,   ,   ,2658,33640,30982
2032,   ,   ,   ,3152,34001,30849
2033,   ,   ,   ,2655,33494,30839
2034,   ,   ,   ,3333,34435,31102
2035,   ,   ,   ,2514,33415,30901
2036,   ,   ,   ,2987,33425,30438
2037,   ,   ,   ,2482,33336,30854
2038,   ,   ,   ,2805,33661,30856
2039,   ,   ,   ,2321,33273,30952
2040,   ,   ,   ,2875,33867,30992
2041,   ,   ,   ,2326,33616,31290
2042,   ,   ,   ,2523,33549,31026
2043,   ,   ,   ,2585,33247,30662
2044,   ,   ,   ,2545,32813,30268
2045,   ,   ,   ,2684,33279,30595
2046,   ,   ,   ,3131,33557,30426
2047,   ,   ,   ,2813,33100,30287
