Pixel,Wavelength,Wavenumber,Raman Shift,Dark,Raw data #1,Dark Subtracted #1
0,   ,   ,   ,1353,1294,-59
1,   ,   ,   ,1353,1294,-59
2,   ,   ,   ,1542,1534,-8
3,   ,   ,   ,1294,1283,-11
4,   ,   ,   ,1303,1304,1
5,   ,   ,   ,1295,1280,-15
6,   ,   ,   ,2206,8821,6615
7,   ,   ,   ,2665,5403,2738
8,   ,   ,   ,2492,4278,1786
9,   ,   ,   ,2500,3562,1062
10,   ,   ,   ,2399,3347,948
11,   ,   ,   ,2317,3034,717
12,   ,   ,   ,2479,3325,846
13,   ,   ,   ,2458,3025,567
14,   ,   ,   ,2846,3394,548
15,   ,   ,   ,2828,3388,560
16,   ,   ,   ,2435,2895,460
17,   ,   ,   ,2654,3197,543
18,   ,   ,   ,2886,3260,374
19,   ,   ,   ,2910,3447,537
20,   ,   ,   ,2496,2968,472
21,   ,   ,   ,2770,3114,344
22,   ,   ,   ,2291,2843,552
23,   ,   ,   ,2587,2972,385
24,   ,   ,   ,2948,3384,436
25,   ,   ,   ,2556,3071,515
26,   ,   ,   ,3250,3724,474
27,   ,   ,   ,2334,2916,582
28,   ,   ,   ,2717,3472,755
29,   ,   ,   ,2777,3529,752
30,   ,   ,   ,2928,3753,825
31,   ,   ,   ,3280,4411,1131
32,   ,   ,   ,2585,3835,1250
33,   ,   ,   ,2527,3936,1409
34,533.81,18733.31,63.69,2518,4020,1502
35,533.86,18731.36,65.63,3595,5306,1711
36,533.92,18729.41,67.58,3018,5109,2091
37,533.98,18727.47,69.53,3320,5657,2337
38,534.03,18725.52,71.47,3180,5696,2516
39,534.09,18723.58,73.42,3115,5982,2867
40,534.14,18721.63,75.36,2804,5979,3175
41,534.2,18719.69,77.3,3052,6309,3257
42,534.25,18717.74,79.25,3369,6734,3365
43,534.31,18715.8,81.19,2636,6273,3637
44,534.36,18713.86,83.13,2871,6698,3827
45,534.42,18711.92,85.08,2994,7287,4293
46,534.47,18709.98,87.02,3258,7612,4354
47,534.53,18708.04,88.96,3728,8472,4744
48,534.59,18706.1,90.9,3335,8211,4876
49,534.64,18704.16,92.84,2608,7917,5309
50,534.7,18702.22,94.78,2868,8465,5597
51,534.75,18700.28,96.71,2604,7949,5345
52,534.81,18698.34,98.65,2565,7544,4979
53,534.86,18696.4,100.59,2671,7750,5079
54,534.92,18694.47,102.53,2749,7825,5076
55,534.97,18692.53,104.46,2855,8407,5552
56,535.03,18690.59,106.4,3678,9305,5627
57,535.08,18688.66,108.33,3164,8885,5721
58,535.14,18686.72,110.27,4076,9626,5550
59,535.19,18684.79,112.2,3862,9054,5192
60,535.25,18682.86,114.14,3899,8725,4826
61,535.31,18680.92,116.07,3272,8049,4777
62,535.36,18678.99,118,3408,8416,5008
63,535.42,18677.06,119.93,3326,8394,5068
64,535.47,18675.13,121.87,2791,7614,4823
65,535.53,18673.2,123.8,3019,7658,4639
66,535.58,18671.27,125.73,3368,7828,4460
67,535.64,18669.34,127.66,3078,7713,4635
68,535.69,18667.41,129.59,2869,6808,3939
69,535.75,18665.48,131.52,3121,6977,3856
70,535.8,18663.55,133.44,2776,6626,3850
71,535.86,18661.62,135.37,3085,6826,3741
72,535.91,18659.69,137.3,3288,6907,3619
73,535.97,18657.77,139.22,2392,6333,3941
74,536.03,18655.84,141.15,3478,7379,3901
75,536.08,18653.92,143.08,2754,6334,3580
76,536.14,18651.99,145,2661,6023,3362
77,536.19,18650.07,146.93,3069,6396,3327
78,536.25,18648.14,148.85,3016,6281,3265
79,536.3,18646.22,150.77,2395,5791,3396
80,536.36,18644.3,152.7,2389,5825,3436
81,536.41,18642.37,154.62,2651,5922,3271
82,536.47,18640.45,156.54,3159,6380,3221
83,536.52,18638.53,158.46,4088,7255,3167
84,536.58,18636.61,160.38,3168,6190,3022
85,536.63,18634.69,162.3,3179,6230,3051
86,536.69,18632.77,164.22,3333,6498,3165
87,536.74,18630.85,166.14,3277,6017,2740
88,536.8,18628.93,168.06,3129,6069,2940
89,536.85,18627.02,169.98,6860,9913,3053
90,536.91,18625.1,171.89,3228,6248,3020
91,536.97,18623.18,173.81,2962,5818,2856
92,537.02,18621.27,175.73,3683,6539,2856
93,537.08,18619.35,177.64,3193,5803,2610
94,537.13,18617.43,179.56,2764,5552,2788
95,537.19,18615.52,181.47,2982,5741,2759
96,537.24,18613.61,183.39,3165,6037,2872
97,537.3,18611.69,185.3,3031,5856,2825
98,537.35,18609.78,187.21,2384,5012,2628
99,537.41,18607.87,189.13,2583,5394,2811
100,537.46,18605.96,191.04,3141,5802,2661
101,537.52,18604.04,192.95,3475,6124,2649
102,537.57,18602.13,194.86,3292,5927,2635
103,537.63,18600.22,196.77,2725,5299,2574
104,537.68,18598.31,198.68,2834,5610,2776
105,537.74,18596.4,200.59,2713,5303,2590
106,537.79,18594.49,202.5,3475,6246,2771
107,537.85,18592.59,204.41,2827,5453,2626
108,537.9,18590.68,206.31,3373,6026,2653
109,537.96,18588.77,208.22,3341,6018,2677
110,538.01,18586.87,210.13,2999,5717,2718
111,538.07,18584.96,212.03,3303,5917,2614
112,538.12,18583.05,213.94,3208,5674,2466
113,538.18,18581.15,215.84,2985,5515,2530
114,538.24,18579.24,217.75,2799,5422,2623
115,538.29,18577.34,219.65,3418,6157,2739
116,538.35,18575.44,221.56,2994,5721,2727
117,538.4,18573.53,223.46,2896,5695,2799
118,538.46,18571.63,225.36,3241,5843,2602
119,538.51,18569.73,227.26,2990,5712,2722
120,538.57,18567.83,229.16,3203,5990,2787
121,538.62,18565.93,231.06,2860,5600,2740
122,538.68,18564.03,232.96,3180,5945,2765
123,538.73,18562.13,234.86,2512,5084,2572
124,538.79,18560.23,236.76,3351,6165,2814
125,538.84,18558.33,238.66,3755,6635,2880
126,538.9,18556.43,240.56,2855,5574,2719
127,538.95,18554.54,242.46,2879,5641,2762
128,539.01,18552.64,244.35,3121,5854,2733
129,539.06,18550.74,246.25,3788,6682,2894
130,539.12,18548.85,248.15,3318,6214,2896
131,539.17,18546.95,250.04,3812,6679,2867
132,539.23,18545.06,251.94,3590,6549,2959
133,539.28,18543.16,253.83,3501,6418,2917
134,539.34,18541.27,255.72,3401,6358,2957
135,539.39,18539.37,257.62,2820,5842,3022
136,539.45,18537.48,259.51,2999,5988,2989
137,539.5,18535.59,261.4,3234,6144,2910
138,539.56,18533.7,263.29,2998,5957,2959
139,539.61,18531.81,265.18,3521,6371,2850
140,539.67,18529.92,267.08,3376,6415,3039
141,539.72,18528.03,268.97,2306,5190,2884
142,539.78,18526.14,270.85,2929,6123,3194
143,539.83,18524.25,272.74,2819,5702,2883
144,539.89,18522.36,274.63,3018,6101,3083
145,539.94,18520.47,276.52,3445,6502,3057
146,540,18518.59,278.41,3074,5913,2839
147,540.05,18516.7,280.29,3374,6464,3090
148,540.11,18514.81,282.18,3311,6173,2862
149,540.16,18512.93,284.07,3240,6250,3010
150,540.22,18511.04,285.95,3008,5996,2988
151,540.27,18509.16,287.84,3407,6426,3019
152,540.33,18507.27,289.72,3085,6041,2956
153,540.38,18505.39,291.6,2770,5598,2828
154,540.44,18503.51,293.49,2922,5889,2967
155,540.49,18501.62,295.37,3003,5962,2959
156,540.55,18499.74,297.25,3226,6155,2929
157,540.6,18497.86,299.13,2743,5561,2818
158,540.66,18495.98,301.01,2651,5633,2982
159,540.71,18494.1,302.89,2984,5964,2980
160,540.77,18492.22,304.77,2801,5634,2833
161,540.82,18490.34,306.65,3337,6206,2869
162,540.88,18488.46,308.53,2634,5546,2912
163,540.93,18486.58,310.41,2812,5727,2915
164,540.99,18484.7,312.29,2811,5678,2867
165,541.04,18482.83,314.16,2736,5670,2934
166,541.1,18480.95,316.04,2634,5574,2940
167,541.15,18479.07,317.92,3271,6185,2914
168,541.21,18477.2,319.79,3123,5935,2812
169,541.26,18475.32,321.67,2171,5045,2874
170,541.32,18473.45,323.54,3269,6174,2905
171,541.37,18471.58,325.42,3124,5869,2745
172,541.43,18469.7,327.29,3080,5811,2731
173,541.48,18467.83,329.16,3234,6217,2983
174,541.54,18465.96,331.04,3236,6083,2847
175,541.59,18464.08,332.91,2815,5738,2923
176,541.65,18462.21,334.78,3170,5932,2762
177,541.7,18460.34,336.65,3127,6029,2902
178,541.76,18458.47,338.52,2852,5888,3036
179,541.81,18456.6,340.39,2886,5768,2882
180,541.87,18454.73,342.26,3540,6356,2816
181,541.92,18452.86,344.13,3756,6695,2939
182,541.98,18451,346,3334,6127,2793
183,542.03,18449.13,347.86,2899,5862,2963
184,542.09,18447.26,349.73,2962,5898,2936
185,542.14,18445.39,351.6,2757,5855,3098
186,542.2,18443.53,353.46,2606,5499,2893
187,542.25,18441.66,355.33,2598,5662,3064
188,542.31,18439.8,357.19,3149,6130,2981
189,542.36,18437.93,359.06,2340,5443,3103
190,542.41,18436.07,360.92,2782,5879,3097
191,542.47,18434.21,362.79,3158,6167,3009
192,542.52,18432.34,364.65,2867,5865,2998
193,542.58,18430.48,366.51,3198,6358,3160
194,542.63,18428.62,368.37,2738,5961,3223
195,542.69,18426.76,370.23,3455,6521,3066
196,542.74,18424.9,372.1,3341,6397,3056
197,542.8,18423.04,373.96,2675,5762,3087
198,542.85,18421.18,375.82,2778,5979,3201
199,542.91,18419.32,377.67,2511,5702,3191
200,542.96,18417.46,379.53,3127,6227,3100
201,543.02,18415.6,381.39,3034,6181,3147
202,543.07,18413.74,383.25,2493,5598,3105
203,543.13,18411.89,385.11,3022,6309,3287
204,543.18,18410.03,386.96,3074,6528,3454
205,543.24,18408.17,388.82,3287,6543,3256
206,543.29,18406.32,390.67,2758,6029,3271
207,543.35,18404.46,392.53,2834,6175,3341
208,543.4,18402.61,394.38,2978,6267,3289
209,543.46,18400.75,396.24,2999,6324,3325
210,543.51,18398.9,398.09,5123,8362,3239
211,543.57,18397.05,399.94,3302,6700,3398
212,543.62,18395.2,401.8,2882,6164,3282
213,543.67,18393.34,403.65,2938,6269,3331
214,543.73,18391.49,405.5,2712,6219,3507
215,543.78,18389.64,407.35,3386,6858,3472
216,543.84,18387.79,409.2,4967,8159,3192
217,543.89,18385.94,411.05,3297,6663,3366
218,543.95,18384.09,412.9,3624,7014,3390
219,544,18382.24,414.75,2741,6038,3297
220,544.06,18380.4,416.6,2814,6119,3305
221,544.11,18378.55,418.44,3103,6379,3276
222,544.17,18376.7,420.29,3216,6573,3357
223,544.22,18374.85,422.14,5338,8815,3477
224,544.28,18373.01,423.98,3163,6608,3445
225,544.33,18371.16,425.83,3210,6685,3475
226,544.39,18369.32,427.68,3278,6753,3475
227,544.44,18367.47,429.52,2759,6064,3305
228,544.5,18365.63,431.36,2922,6350,3428
229,544.55,18363.79,433.21,8497,11866,3369
230,544.6,18361.94,435.05,7658,11204,3546
231,544.66,18360.1,436.89,2855,6295,3440
232,544.71,18358.26,438.73,3316,6569,3253
233,544.77,18356.42,440.58,2726,6268,3542
234,544.82,18354.58,442.42,3611,7154,3543
235,544.88,18352.74,444.26,3209,6676,3467
236,544.93,18350.9,446.1,3241,6773,3532
237,544.99,18349.06,447.94,2753,6074,3321
238,545.04,18347.22,449.78,2987,6372,3385
239,545.1,18345.38,451.61,3405,6860,3455
240,545.15,18343.54,453.45,2873,6265,3392
241,545.21,18341.7,455.29,3387,6370,2983
242,545.26,18339.87,457.13,2420,5807,3387
243,545.31,18338.03,458.96,3131,6256,3125
244,545.37,18336.2,460.8,2676,6066,3390
245,545.42,18334.36,462.63,3309,6583,3274
246,545.48,18332.53,464.47,2946,6225,3279
247,545.53,18330.69,466.3,3524,6749,3225
248,545.59,18328.86,468.13,2899,6077,3178
249,545.64,18327.03,469.97,2347,5675,3328
250,545.7,18325.19,471.8,2565,5788,3223
251,545.75,18323.36,473.63,3206,6222,3016
252,545.81,18321.53,475.46,2914,6016,3102
253,545.86,18319.7,477.29,2284,5559,3275
254,545.92,18317.87,479.12,3880,6918,3038
255,545.97,18316.04,480.95,2383,5692,3309
256,546.02,18314.21,482.78,3583,6708,3125
257,546.08,18312.38,484.61,3262,6550,3288
258,546.13,18310.55,486.44,2522,5904,3382
259,546.19,18308.72,488.27,3090,6390,3300
260,546.24,18306.9,490.1,3473,6580,3107
261,546.3,18305.07,491.92,4111,7269,3158
262,546.35,18303.24,493.75,2948,6239,3291
263,546.41,18301.42,495.58,3361,6437,3076
264,546.46,18299.59,497.4,3723,6883,3160
265,546.51,18297.77,499.23,2706,5687,2981
266,546.57,18295.94,501.05,3289,6187,2898
267,546.62,18294.12,502.87,2897,5608,2711
268,546.68,18292.3,504.7,2717,5497,2780
269,546.73,18290.47,506.52,3161,5744,2583
270,546.79,18288.65,508.34,3020,5560,2540
271,546.84,18286.83,510.16,2939,5538,2599
272,546.9,18285.01,511.98,3542,6117,2575
273,546.95,18283.19,513.81,3342,5687,2345
274,547.01,18281.37,515.63,3251,5825,2574
275,547.06,18279.55,517.44,2643,5094,2451
276,547.11,18277.73,519.26,3717,6080,2363
277,547.17,18275.91,521.08,3242,5502,2260
278,547.22,18274.09,522.9,3299,5744,2445
279,547.28,18272.27,524.72,3670,5880,2210
280,547.33,18270.46,526.53,2989,5463,2474
281,547.39,18268.64,528.35,2898,5120,2222
282,547.44,18266.83,530.17,3140,5246,2106
283,547.49,18265.01,531.98,2994,5173,2179
284,547.55,18263.19,533.8,3464,5594,2130
285,547.6,18261.38,535.61,2738,4899,2161
286,547.66,18259.57,537.43,3182,5349,2167
287,547.71,18257.75,539.24,3058,5365,2307
288,547.77,18255.94,541.05,3411,5482,2071
289,547.82,18254.13,542.86,3042,5111,2069
290,547.88,18252.32,544.68,3034,4982,1948
291,547.93,18250.5,546.49,3722,5743,2021
292,547.98,18248.69,548.3,2668,4876,2208
293,548.04,18246.88,550.11,3039,5081,2042
294,548.09,18245.07,551.92,2796,4862,2066
295,548.15,18243.26,553.73,3042,5217,2175
296,548.2,18241.46,555.54,2565,4667,2102
297,548.26,18239.65,557.34,3460,5526,2066
298,548.31,18237.84,559.15,3225,5422,2197
299,548.36,18236.03,560.96,2476,4638,2162
300,548.42,18234.23,562.77,2856,5027,2171
301,548.47,18232.42,564.57,4406,6439,2033
302,548.53,18230.61,566.38,3605,5587,1982
303,548.58,18228.81,568.18,2991,5173,2182
304,548.64,18227,569.99,3212,5410,2198
305,548.69,18225.2,571.79,3151,5263,2112
306,548.75,18223.4,573.6,2727,4908,2181
307,548.8,18221.59,575.4,3249,5358,2109
308,548.85,18219.79,577.2,3242,5406,2164
309,548.91,18217.99,579,3349,5444,2095
310,548.96,18216.19,580.8,3974,6148,2174
311,549.02,18214.39,582.61,4207,6521,2314
312,549.07,18212.59,584.41,3206,5294,2088
313,549.13,18210.79,586.21,4114,6263,2149
314,549.18,18208.99,588.01,3394,5732,2338
315,549.23,18207.19,589.8,4247,6342,2095
316,549.29,18205.39,591.6,3572,5875,2303
317,549.34,18203.59,593.4,3605,6071,2466
318,549.4,18201.79,595.2,3958,6143,2185
319,549.45,18200,597,4294,6656,2362
320,549.5,18198.2,598.79,4189,6507,2318
321,549.56,18196.4,600.59,4379,6827,2448
322,549.61,18194.61,602.38,4651,7218,2567
323,549.67,18192.81,604.18,4794,7304,2510
324,549.72,18191.02,605.97,5658,8095,2437
325,549.78,18189.23,607.77,5711,8116,2405
326,549.83,18187.43,609.56,5480,7954,2474
327,549.88,18185.64,611.35,5493,8165,2672
328,549.94,18183.85,613.15,5407,7844,2437
329,549.99,18182.06,614.94,5886,8247,2361
330,550.05,18180.26,616.73,5588,8218,2630
331,550.1,18178.47,618.52,5377,7626,2249
332,550.16,18176.68,620.31,4835,7194,2359
333,550.21,18174.89,622.1,4684,7235,2551
334,550.26,18173.1,623.89,4651,6933,2282
335,550.32,18171.32,625.68,4183,6484,2301
336,550.37,18169.53,627.47,4245,6692,2447
337,550.43,18167.74,629.25,5090,7252,2162
338,550.48,18165.95,631.04,3783,6012,2229
339,550.53,18164.17,632.83,4029,6248,2219
340,550.59,18162.38,634.61,3694,5936,2242
341,550.64,18160.59,636.4,3692,5685,1993
342,550.7,18158.81,638.18,3794,6092,2298
343,550.75,18157.02,639.97,3337,5626,2289
344,550.81,18155.24,641.75,3818,5954,2136
345,550.86,18153.46,643.54,3057,5084,2027
346,550.91,18151.67,645.32,3951,6032,2081
347,550.97,18149.89,647.1,3724,5810,2086
348,551.02,18148.11,648.88,3162,5371,2209
349,551.08,18146.33,650.67,3321,5478,2157
350,551.13,18144.54,652.45,3521,5708,2187
351,551.18,18142.76,654.23,3273,5368,2095
352,551.24,18140.98,656.01,2996,5330,2334
353,551.29,18139.2,657.79,2976,5176,2200
354,551.35,18137.43,659.57,3092,5200,2108
355,551.4,18135.65,661.35,3558,5909,2351
356,551.45,18133.87,663.12,3148,5273,2125
357,551.51,18132.09,664.9,3113,5258,2145
358,551.56,18130.31,666.68,3015,5350,2335
359,551.62,18128.54,668.46,3144,5383,2239
360,551.67,18126.76,670.23,3070,5420,2350
361,551.72,18124.99,672.01,3565,5548,1983
362,551.78,18123.21,673.78,2437,4495,2058
363,551.83,18121.44,675.56,3034,5267,2233
364,551.89,18119.66,677.33,2889,5130,2241
365,551.94,18117.89,679.1,3046,5052,2006
366,551.99,18116.12,680.88,3427,5635,2208
367,552.05,18114.34,682.65,3470,5732,2262
368,552.1,18112.57,684.42,2392,4523,2131
369,552.16,18110.8,686.19,2663,4975,2312
370,552.21,18109.03,687.96,2967,5082,2115
371,552.26,18107.26,689.73,2730,4804,2074
372,552.32,18105.49,691.5,3165,5497,2332
373,552.37,18103.72,693.27,3080,5394,2314
374,552.43,18101.95,695.04,3240,5555,2315
375,552.48,18100.18,696.81,3045,5202,2157
376,552.53,18098.41,698.58,2997,5297,2300
377,552.59,18096.65,700.35,3091,5274,2183
378,552.64,18094.88,702.11,3099,5494,2395
379,552.7,18093.11,703.88,3865,6294,2429
380,552.75,18091.35,705.65,2706,5015,2309
381,552.8,18089.58,707.41,3488,6021,2533
382,552.86,18087.82,709.18,2725,5128,2403
383,552.91,18086.05,710.94,3216,5420,2204
384,552.97,18084.29,712.7,3179,5500,2321
385,553.02,18082.52,714.47,3307,5500,2193
386,553.07,18080.76,716.23,2850,5194,2344
387,553.13,18079,717.99,2607,4966,2359
388,553.18,18077.24,719.76,3295,5524,2229
389,553.24,18075.48,721.52,2750,5011,2261
390,553.29,18073.71,723.28,3134,5309,2175
391,553.34,18071.95,725.04,2949,5337,2388
392,553.4,18070.19,726.8,3167,5492,2325
393,553.45,18068.44,728.56,2642,4846,2204
394,553.51,18066.68,730.32,2851,5248,2397
395,553.56,18064.92,732.07,3170,5345,2175
396,553.61,18063.16,733.83,3399,5903,2504
397,553.67,18061.4,735.59,3157,5495,2338
398,553.72,18059.65,737.35,3462,5716,2254
399,553.77,18057.89,739.1,2910,5369,2459
400,553.83,18056.13,740.86,3493,5739,2246
401,553.88,18054.38,742.61,2728,5153,2425
402,553.94,18052.62,744.37,2963,5173,2210
403,553.99,18050.87,746.12,2635,5028,2393
404,554.04,18049.11,747.88,2970,5334,2364
405,554.1,18047.36,749.63,3533,5769,2236
406,554.15,18045.61,751.38,3319,5773,2454
407,554.21,18043.86,753.14,3115,5249,2134
408,554.26,18042.1,754.89,2526,4848,2322
409,554.31,18040.35,756.64,3315,5832,2517
410,554.37,18038.6,758.39,3329,5724,2395
411,554.42,18036.85,760.14,5026,7432,2406
412,554.47,18035.1,761.89,5300,7684,2384
413,554.53,18033.35,763.64,2858,5167,2309
414,554.58,18031.6,765.39,2713,5325,2612
415,554.64,18029.86,767.14,2960,5457,2497
416,554.69,18028.11,768.89,2895,5249,2354
417,554.74,18026.36,770.63,3016,5396,2380
418,554.8,18024.61,772.38,2934,5514,2580
419,554.85,18022.87,774.13,2652,5043,2391
420,554.9,18021.12,775.87,2986,5506,2520
421,554.96,18019.38,777.62,2876,5343,2467
422,555.01,18017.63,779.36,3000,5621,2621
423,555.07,18015.89,781.11,3903,6533,2630
424,555.12,18014.14,782.85,3796,6277,2481
425,555.17,18012.4,784.59,2758,5552,2794
426,555.23,18010.66,786.34,3128,5665,2537
427,555.28,18008.91,788.08,3395,5942,2547
428,555.33,18007.17,789.82,3284,6019,2735
429,555.39,18005.43,791.56,2986,5615,2629
430,555.44,18003.69,793.3,3233,5861,2628
431,555.5,18001.95,795.04,2780,5560,2780
432,555.55,18000.21,796.78,2858,5593,2735
433,555.6,17998.47,798.52,2937,5626,2689
434,555.66,17996.73,800.26,2763,5522,2759
435,555.71,17994.99,802,3473,6232,2759
436,555.76,17993.26,803.74,2939,5616,2677
437,555.82,17991.52,805.47,2790,5418,2628
438,555.87,17989.78,807.21,2630,5421,2791
439,555.92,17988.04,808.95,3712,6330,2618
440,555.98,17986.31,810.68,2703,5550,2847
441,556.03,17984.57,812.42,2543,5197,2654
442,556.09,17982.84,814.15,3247,5965,2718
443,556.14,17981.1,815.89,3456,6117,2661
444,556.19,17979.37,817.62,2871,5526,2655
445,556.25,17977.64,819.36,2983,5608,2625
446,556.3,17975.9,821.09,2971,5503,2532
447,556.35,17974.17,822.82,3490,6370,2880
448,556.41,17972.44,824.55,3499,6061,2562
449,556.46,17970.71,826.28,3065,5964,2899
450,556.51,17968.98,828.02,3441,5963,2522
451,556.57,17967.25,829.75,3227,5888,2661
452,556.62,17965.52,831.48,2913,5600,2687
453,556.68,17963.79,833.21,2784,5639,2855
454,556.73,17962.06,834.93,2982,5567,2585
455,556.78,17960.33,836.66,2814,5545,2731
456,556.84,17958.6,838.39,2884,5711,2827
457,556.89,17956.87,840.12,2674,5421,2747
458,556.94,17955.15,841.84,3092,5716,2624
459,557,17953.42,843.57,3082,5840,2758
460,557.05,17951.7,845.3,2947,5790,2843
461,557.1,17949.97,847.02,3122,5866,2744
462,557.16,17948.24,848.75,3611,6243,2632
463,557.21,17946.52,850.47,2945,5638,2693
464,557.26,17944.8,852.2,2771,5303,2532
465,557.32,17943.07,853.92,2421,5205,2784
466,557.37,17941.35,855.64,3439,6090,2651
467,557.43,17939.63,857.37,2969,5745,2776
468,557.48,17937.91,859.09,2749,5425,2676
469,557.53,17936.18,860.81,2875,5631,2756
470,557.59,17934.46,862.53,2948,5790,2842
471,557.64,17932.74,864.25,2447,5133,2686
472,557.69,17931.02,865.97,3007,5634,2627
473,557.75,17929.3,867.69,2542,5018,2476
474,557.8,17927.58,869.41,3329,5854,2525
475,557.85,17925.87,871.13,2513,5195,2682
476,557.91,17924.15,872.85,2991,5692,2701
477,557.96,17922.43,874.56,2461,5053,2592
478,558.01,17920.71,876.28,3208,5542,2334
479,558.07,17919,878,3234,5794,2560
480,558.12,17917.28,879.71,2960,5650,2690
481,558.17,17915.56,881.43,2751,5314,2563
482,558.23,17913.85,883.14,2574,5119,2545
483,558.28,17912.13,884.86,2866,5296,2430
484,558.33,17910.42,886.57,2936,5617,2681
485,558.39,17908.71,888.29,3783,6511,2728
486,558.44,17906.99,890,2770,5317,2547
487,558.49,17905.28,891.71,2730,5162,2432
488,558.55,17903.57,893.42,3075,5598,2523
489,558.6,17901.86,895.14,3006,5721,2715
490,558.65,17900.15,896.85,2808,5427,2619
491,558.71,17898.44,898.56,3026,5578,2552
492,558.76,17896.73,900.27,3199,5906,2707
493,558.81,17895.02,901.98,3338,5969,2631
494,558.87,17893.31,903.69,3143,5929,2786
495,558.92,17891.6,905.39,2732,5371,2639
496,558.97,17889.89,907.1,2910,5611,2701
497,559.03,17888.18,908.81,3405,6101,2696
498,559.08,17886.47,910.52,2766,5397,2631
499,559.14,17884.77,912.22,3218,5832,2614
500,559.19,17883.06,913.93,3234,6036,2802
501,559.24,17881.36,915.64,2852,5654,2802
502,559.3,17879.65,917.34,3328,6139,2811
503,559.35,17877.95,919.05,3183,5946,2763
504,559.4,17876.24,920.75,2953,5754,2801
505,559.46,17874.54,922.45,2763,5470,2707
506,559.51,17872.83,924.16,2814,5564,2750
507,559.56,17871.13,925.86,2808,5604,2796
508,559.61,17869.43,927.56,2819,5443,2624
509,559.67,17867.73,929.27,2815,5547,2732
510,559.72,17866.03,930.97,3751,6661,2910
511,559.77,17864.33,932.67,3200,6026,2826
512,559.83,17862.62,934.37,2654,5436,2782
513,559.88,17860.93,936.07,3204,6274,3070
514,559.93,17859.23,937.77,2912,5798,2886
515,559.99,17857.53,939.47,3323,6186,2863
516,560.04,17855.83,941.16,3005,5767,2762
517,560.09,17854.13,942.86,3387,6208,2821
518,560.15,17852.43,944.56,2993,5884,2891
519,560.2,17850.74,946.26,2677,5556,2879
520,560.25,17849.04,947.95,5480,8238,2758
521,560.31,17847.34,949.65,3012,5816,2804
522,560.36,17845.65,951.34,2619,5475,2856
523,560.41,17843.95,953.04,2854,5850,2996
524,560.47,17842.26,954.73,2988,5641,2653
525,560.52,17840.56,956.43,3243,5903,2660
526,560.57,17838.87,958.12,2824,5594,2770
527,560.63,17837.18,959.81,3379,6462,3083
528,560.68,17835.49,961.51,2664,5516,2852
529,560.73,17833.79,963.2,3286,6006,2720
530,560.79,17832.1,964.89,2941,5700,2759
531,560.84,17830.41,966.58,2684,5651,2967
532,560.89,17828.72,968.27,3019,5905,2886
533,560.95,17827.03,969.96,3259,6070,2811
534,561,17825.34,971.65,3295,6074,2779
535,561.05,17823.65,973.34,2963,5905,2942
536,561.11,17821.96,975.03,2698,5532,2834
537,561.16,17820.27,976.72,3911,6963,3052
538,561.21,17818.59,978.41,5296,8248,2952
539,561.26,17816.9,980.09,3246,6138,2892
540,561.32,17815.21,981.78,2722,5701,2979
541,561.37,17813.53,983.47,3048,5991,2943
542,561.42,17811.84,985.15,3304,6124,2820
543,561.48,17810.16,986.84,2822,5851,3029
544,561.53,17808.47,988.52,2613,5762,3149
545,561.58,17806.79,990.21,2439,5303,2864
546,561.64,17805.1,991.89,2836,5780,2944
547,561.69,17803.42,993.57,2921,6128,3207
548,561.74,17801.74,995.26,2962,5818,2856
549,561.8,17800.05,996.94,2649,5859,3210
550,561.85,17798.37,998.62,3088,6290,3202
551,561.9,17796.69,1000.3,3126,6382,3256
552,561.96,17795.01,1001.98,3280,6360,3080
553,562.01,17793.33,1003.66,2616,5705,3089
554,562.06,17791.65,1005.34,2916,5983,3067
555,562.11,17789.97,1007.02,2682,5788,3106
556,562.17,17788.29,1008.7,3070,6378,3308
557,562.22,17786.61,1010.38,2657,5891,3234
558,562.27,17784.94,1012.06,2902,6232,3330
559,562.33,17783.26,1013.73,3241,6383,3142
560,562.38,17781.58,1015.41,3076,6345,3269
561,562.43,17779.9,1017.09,2996,6069,3073
562,562.49,17778.23,1018.76,3533,6857,3324
563,562.54,17776.55,1020.44,3372,6528,3156
564,562.59,17774.88,1022.11,3998,7390,3392
565,562.64,17773.2,1023.79,4067,7293,3226
566,562.7,17771.53,1025.46,2838,6367,3529
567,562.75,17769.86,1027.14,2964,6421,3457
568,562.8,17768.18,1028.81,3190,6770,3580
569,562.86,17766.51,1030.48,3546,7196,3650
570,562.91,17764.84,1032.16,2606,6248,3642
571,562.96,17763.17,1033.83,2886,6339,3453
572,563.02,17761.49,1035.5,3151,6713,3562
573,563.07,17759.82,1037.17,2730,6358,3628
574,563.12,17758.15,1038.84,3341,6876,3535
575,563.17,17756.48,1040.51,2727,6266,3539
576,563.23,17754.81,1042.18,2560,6294,3734
577,563.28,17753.15,1043.85,3425,6944,3519
578,563.33,17751.48,1045.52,3199,6864,3665
579,563.39,17749.81,1047.18,3584,7111,3527
580,563.44,17748.14,1048.85,2777,6554,3777
581,563.49,17746.48,1050.52,3579,7498,3919
582,563.55,17744.81,1052.18,3224,7034,3810
583,563.6,17743.14,1053.85,3476,7451,3975
584,563.65,17741.48,1055.51,3045,7060,4015
585,563.7,17739.81,1057.18,2866,6910,4044
586,563.76,17738.15,1058.84,2962,6862,3900
587,563.81,17736.48,1060.51,3132,7075,3943
588,563.86,17734.82,1062.17,2400,6395,3995
589,563.92,17733.16,1063.83,2855,6743,3888
590,563.97,17731.5,1065.5,2688,6752,4064
591,564.02,17729.83,1067.16,3151,7239,4088
592,564.07,17728.17,1068.82,2405,6674,4269
593,564.13,17726.51,1070.48,3118,7304,4186
594,564.18,17724.85,1072.14,2896,7134,4238
595,564.23,17723.19,1073.8,3199,7255,4056
596,564.29,17721.53,1075.46,3043,7383,4340
597,564.34,17719.87,1077.12,3681,7970,4289
598,564.39,17718.21,1078.78,2835,6996,4161
599,564.44,17716.55,1080.44,2228,6699,4471
600,564.5,17714.9,1082.1,3587,7857,4270
601,564.55,17713.24,1083.75,2298,6636,4338
602,564.6,17711.58,1085.41,3140,7668,4528
603,564.66,17709.93,1087.07,2920,7420,4500
604,564.71,17708.27,1088.72,3000,7557,4557
605,564.76,17706.61,1090.38,3264,7933,4669
606,564.81,17704.96,1092.03,2802,7217,4415
607,564.87,17703.31,1093.69,3309,7748,4439
608,564.92,17701.65,1095.34,3116,7677,4561
609,564.97,17700,1096.99,2904,7565,4661
610,565.02,17698.35,1098.65,3297,7982,4685
611,565.08,17696.69,1100.3,2603,7179,4576
612,565.13,17695.04,1101.95,2483,7214,4731
613,565.18,17693.39,1103.6,3058,7560,4502
614,565.24,17691.74,1105.25,3056,7711,4655
615,565.29,17690.09,1106.9,2819,7584,4765
616,565.34,17688.44,1108.55,2903,7761,4858
617,565.39,17686.79,1110.2,2565,7363,4798
618,565.45,17685.14,1111.85,3291,8173,4882
619,565.5,17683.49,1113.5,3764,8434,4670
620,565.55,17681.84,1115.15,2418,7282,4864
621,565.6,17680.19,1116.8,3266,8000,4734
622,565.66,17678.55,1118.45,2640,7462,4822
623,565.71,17676.9,1120.09,2664,7493,4829
624,565.76,17675.25,1121.74,2625,7451,4826
625,565.82,17673.61,1123.38,2719,7620,4901
626,565.87,17671.96,1125.03,3032,7857,4825
627,565.92,17670.32,1126.67,3012,7793,4781
628,565.97,17668.67,1128.32,2844,7663,4819
629,566.03,17667.03,1129.96,3078,7834,4756
630,566.08,17665.39,1131.61,3071,8110,5039
631,566.13,17663.74,1133.25,2393,7363,4970
632,566.18,17662.1,1134.89,2666,7457,4791
633,566.24,17660.46,1136.53,3227,8229,5002
634,566.29,17658.82,1138.17,3063,8219,5156
635,566.34,17657.18,1139.82,3076,7927,4851
636,566.39,17655.54,1141.46,2704,7612,4908
637,566.45,17653.9,1143.1,2615,7699,5084
638,566.5,17652.26,1144.74,3109,8237,5128
639,566.55,17650.62,1146.37,2992,8258,5266
640,566.61,17648.98,1148.01,2832,8182,5350
641,566.66,17647.34,1149.65,2236,7330,5094
642,566.71,17645.7,1151.29,2575,7764,5189
643,566.76,17644.07,1152.93,2755,7846,5091
644,566.82,17642.43,1154.56,3023,8196,5173
645,566.87,17640.79,1156.2,3064,8318,5254
646,566.92,17639.16,1157.84,3625,8811,5186
647,566.97,17637.52,1159.47,2909,8121,5212
648,567.03,17635.89,1161.11,3074,8256,5182
649,567.08,17634.25,1162.74,2959,8276,5317
650,567.13,17632.62,1164.37,2964,8275,5311
651,567.18,17630.99,1166.01,3123,8507,5384
652,567.24,17629.35,1167.64,3146,8310,5164
653,567.29,17627.72,1169.27,2677,8043,5366
654,567.34,17626.09,1170.9,2706,8080,5374
655,567.39,17624.46,1172.54,2337,7606,5269
656,567.45,17622.83,1174.17,2486,7747,5261
657,567.5,17621.2,1175.8,3414,8865,5451
658,567.55,17619.57,1177.43,2498,7943,5445
659,567.6,17617.94,1179.06,2443,7770,5327
660,567.66,17616.31,1180.69,3211,8722,5511
661,567.71,17614.68,1182.31,2650,8193,5543
662,567.76,17613.05,1183.94,3249,8750,5501
663,567.81,17611.42,1185.57,2719,8251,5532
664,567.87,17609.79,1187.2,3002,8489,5487
665,567.92,17608.17,1188.82,2861,8755,5894
666,567.97,17606.54,1190.45,2858,8489,5631
667,568.02,17604.92,1192.08,2880,8776,5896
668,568.08,17603.29,1193.7,2379,8388,6009
669,568.13,17601.67,1195.33,2433,8282,5849
670,568.18,17600.04,1196.95,2715,8468,5753
671,568.23,17598.42,1198.58,2749,8555,5806
672,568.29,17596.79,1200.2,2641,8610,5969
673,568.34,17595.17,1201.82,2875,8690,5815
674,568.39,17593.55,1203.44,3324,9274,5950
675,568.44,17591.93,1205.07,3322,9299,5977
676,568.5,17590.3,1206.69,3234,9260,6026
677,568.55,17588.68,1208.31,2866,8922,6056
678,568.6,17587.06,1209.93,2624,8835,6211
679,568.65,17585.44,1211.55,2581,8709,6128
680,568.7,17583.82,1213.17,2852,9183,6331
681,568.76,17582.2,1214.79,3490,9926,6436
682,568.81,17580.58,1216.41,2991,9219,6228
683,568.86,17578.97,1218.03,2616,8850,6234
684,568.91,17577.35,1219.64,3811,10353,6542
685,568.97,17575.73,1221.26,2917,9246,6329
686,569.02,17574.11,1222.88,2356,9000,6644
687,569.07,17572.5,1224.49,2687,9152,6465
688,569.12,17570.88,1226.11,2658,9017,6359
689,569.18,17569.27,1227.73,2931,9549,6618
690,569.23,17567.65,1229.34,2850,9511,6661
691,569.28,17566.04,1230.96,2882,9606,6724
692,569.33,17564.42,1232.57,2558,9282,6724
693,569.38,17562.81,1234.18,2790,9594,6804
694,569.44,17561.2,1235.8,3197,9886,6689
695,569.49,17559.58,1237.41,2832,9764,6932
696,569.54,17557.97,1239.02,2856,9960,7104
697,569.59,17556.36,1240.63,2517,9595,7078
698,569.65,17554.75,1242.24,2799,9766,6967
699,569.7,17553.14,1243.85,3339,10706,7367
700,569.75,17551.53,1245.47,3037,10298,7261
701,569.8,17549.92,1247.08,2585,9895,7310
702,569.86,17548.31,1248.68,3010,10602,7592
703,569.91,17546.7,1250.29,3871,11396,7525
704,569.96,17545.09,1251.9,3448,11170,7722
705,570.01,17543.48,1253.51,3204,10731,7527
706,570.06,17541.88,1255.12,2731,10692,7961
707,570.12,17540.27,1256.72,2715,10636,7921
708,570.17,17538.66,1258.33,4150,11901,7751
709,570.22,17537.06,1259.94,2625,10737,8112
710,570.27,17535.45,1261.54,3362,11667,8305
711,570.33,17533.84,1263.15,2871,11097,8226
712,570.38,17532.24,1264.75,3473,11911,8438
713,570.43,17530.64,1266.36,2373,10929,8556
714,570.48,17529.03,1267.96,4578,13329,8751
715,570.53,17527.43,1269.56,3315,12194,8879
716,570.59,17525.83,1271.17,2986,11877,8891
717,570.64,17524.22,1272.77,2922,11887,8965
718,570.69,17522.62,1274.37,2587,12132,9545
719,570.74,17521.02,1275.97,3020,12675,9655
720,570.8,17519.42,1277.57,3080,13016,9936
721,570.85,17517.82,1279.17,2690,12684,9994
722,570.9,17516.22,1280.77,3376,13630,10254
723,570.95,17514.62,1282.37,3191,13900,10709
724,571,17513.02,1283.97,3091,14045,10954
725,571.06,17511.42,1285.57,2896,13753,10857
726,571.11,17509.82,1287.17,2464,13551,11087
727,571.16,17508.23,1288.77,2773,14306,11533
728,571.21,17506.63,1290.36,3714,15637,11923
729,571.26,17505.03,1291.96,2658,14540,11882
730,571.32,17503.44,1293.56,2812,15350,12538
731,571.37,17501.84,1295.15,3234,15987,12753
732,571.42,17500.24,1296.75,2932,16148,13216
733,571.47,17498.65,1298.34,3323,16975,13652
734,571.52,17497.06,1299.94,2216,16801,14585
735,571.58,17495.46,1301.53,2891,17728,14837
736,571.63,17493.87,1303.12,3003,17970,14967
737,571.68,17492.27,1304.72,2759,18597,15838
738,571.73,17490.68,1306.31,3609,19564,15955
739,571.79,17489.09,1307.9,2590,19484,16894
740,571.84,17487.5,1309.49,2320,19768,17448
741,571.89,17485.91,1311.09,2459,20651,18192
742,571.94,17484.32,1312.68,2439,21569,19130
743,571.99,17482.73,1314.27,3136,23043,19907
744,572.05,17481.14,1315.86,3439,24018,20579
745,572.1,17479.55,1317.45,2428,23970,21542
746,572.15,17477.96,1319.03,3124,25778,22654
747,572.2,17476.37,1320.62,2802,25881,23079
748,572.25,17474.78,1322.21,2926,26806,23880
749,572.31,17473.19,1323.8,2568,28239,25671
750,572.36,17471.61,1325.38,2837,29046,26209
751,572.41,17470.02,1326.97,2611,29459,26848
752,572.46,17468.44,1328.56,3217,31071,27854
753,572.51,17466.85,1330.14,3006,31842,28836
754,572.57,17465.26,1331.73,3420,33438,30018
755,572.62,17463.68,1333.31,2502,33169,30667
756,572.67,17462.1,1334.9,2923,34188,31265
757,572.72,17460.51,1336.48,2479,34276,31797
758,572.77,17458.93,1338.06,2959,35399,32440
759,572.82,17457.35,1339.65,2561,34557,31996
760,572.88,17455.76,1341.23,2696,35360,32664
761,572.93,17454.18,1342.81,2665,35595,32930
762,572.98,17452.6,1344.39,3082,35192,32110
763,573.03,17451.02,1345.97,2738,34964,32226
764,573.08,17449.44,1347.55,2422,34668,32246
765,573.14,17447.86,1349.13,2867,34400,31533
766,573.19,17446.28,1350.71,2940,33849,30909
767,573.24,17444.7,1352.29,5282,35291,30009
768,573.29,17443.12,1353.87,2799,32275,29476
769,573.34,17441.54,1355.45,3045,31365,28320
770,573.4,17439.97,1357.03,2967,30404,27437
771,573.45,17438.39,1358.6,2859,29385,26526
772,573.5,17436.81,1360.18,2957,28268,25311
773,573.55,17435.23,1361.76,3063,27832,24769
774,573.6,17433.66,1363.33,3098,26615,23517
775,573.65,17432.08,1364.91,3060,25899,22839
776,573.71,17430.51,1366.48,2964,24932,21968
777,573.76,17428.93,1368.06,2772,23730,20958
778,573.81,17427.36,1369.63,2669,22809,20140
779,573.86,17425.79,1371.21,4089,23411,19322
780,573.91,17424.21,1372.78,2584,21091,18507
781,573.97,17422.64,1374.35,2692,20557,17865
782,574.02,17421.07,1375.92,2373,19559,17186
783,574.07,17419.5,1377.5,2331,19012,16681
784,574.12,17417.93,1379.07,2568,18450,15882
785,574.17,17416.35,1380.64,2688,17958,15270
786,574.22,17414.78,1382.21,2852,17781,14929
787,574.28,17413.21,1383.78,2971,17478,14507
788,574.33,17411.65,1385.35,2497,16317,13820
789,574.38,17410.08,1386.92,2917,16465,13548
790,574.43,17408.51,1388.48,3527,16768,13241
791,574.48,17406.94,1390.05,2957,16051,13094
792,574.54,17405.37,1391.62,2675,15072,12397
793,574.59,17403.8,1393.19,2623,14621,11998
794,574.64,17402.24,1394.75,2802,14664,11862
795,574.69,17400.67,1396.32,2880,14401,11521
796,574.74,17399.11,1397.89,2740,14010,11270
797,574.79,17397.54,1399.45,3519,14748,11229
798,574.85,17395.98,1401.02,2461,13393,10932
799,574.9,17394.41,1402.58,3751,14703,10952
800,574.95,17392.85,1404.14,2662,13023,10361
801,575,17391.28,1405.71,3171,13361,10190
802,575.05,17389.72,1407.27,2466,12638,10172
803,575.1,17388.16,1408.83,2182,12630,10448
804,575.16,17386.6,1410.4,2584,12489,9905
805,575.21,17385.04,1411.96,3093,12696,9603
806,575.26,17383.47,1413.52,2615,12256,9641
807,575.31,17381.91,1415.08,2758,12364,9606
808,575.36,17380.35,1416.64,3062,12347,9285
809,575.41,17378.79,1418.2,2700,12064,9364
810,575.47,17377.23,1419.76,2912,12075,9163
811,575.52,17375.67,1421.32,2636,11909,9273
812,575.57,17374.12,1422.88,2546,11730,9184
813,575.62,17372.56,1424.43,2515,11636,9121
814,575.67,17371,1425.99,3439,12530,9091
815,575.72,17369.44,1427.55,2952,11863,8911
816,575.78,17367.89,1429.11,2562,11356,8794
817,575.83,17366.33,1430.66,2645,11430,8785
818,575.88,17364.78,1432.22,2728,11635,8907
819,575.93,17363.22,1433.77,2891,11553,8662
820,575.98,17361.67,1435.33,2646,11301,8655
821,576.03,17360.11,1436.88,2882,11310,8428
822,576.08,17358.56,1438.44,3274,11932,8658
823,576.14,17357,1439.99,3502,12486,8984
824,576.19,17355.45,1441.54,3057,11689,8632
825,576.24,17353.9,1443.09,3183,11514,8331
826,576.29,17352.35,1444.65,2905,11412,8507
827,576.34,17350.79,1446.2,2910,11584,8674
828,576.39,17349.24,1447.75,2602,11176,8574
829,576.45,17347.69,1449.3,2850,11319,8469
830,576.5,17346.14,1450.85,2893,11430,8537
831,576.55,17344.59,1452.4,2706,11043,8337
832,576.6,17343.04,1453.95,2779,11519,8740
833,576.65,17341.5,1455.5,2870,11454,8584
834,576.7,17339.95,1457.05,2216,10790,8574
835,576.75,17338.4,1458.59,2871,11497,8626
836,576.81,17336.85,1460.14,3396,11831,8435
837,576.86,17335.3,1461.69,2699,11190,8491
838,576.91,17333.76,1463.23,3130,11439,8309
839,576.96,17332.21,1464.78,2883,11199,8316
840,577.01,17330.67,1466.33,2619,10935,8316
841,577.06,17329.12,1467.87,2691,11125,8434
842,577.11,17327.58,1469.42,2503,11140,8637
843,577.17,17326.03,1470.96,3140,11852,8712
844,577.22,17324.49,1472.5,3064,11502,8438
845,577.27,17322.94,1474.05,2514,10848,8334
846,577.32,17321.4,1475.59,3066,11489,8423
847,577.37,17319.86,1477.13,2694,11090,8396
848,577.42,17318.32,1478.68,2570,11146,8576
849,577.47,17316.78,1480.22,4606,13279,8673
850,577.53,17315.23,1481.76,2571,11094,8523
851,577.58,17313.69,1483.3,2479,10957,8478
852,577.63,17312.15,1484.84,2733,11177,8444
853,577.68,17310.61,1486.38,2866,11286,8420
854,577.73,17309.07,1487.92,2551,11160,8609
855,577.78,17307.54,1489.46,3162,11959,8797
856,577.83,17306,1491,2674,11366,8692
857,577.89,17304.46,1492.53,2868,11432,8564
858,577.94,17302.92,1494.07,2927,11693,8766
859,577.99,17301.38,1495.61,2273,11108,8835
860,578.04,17299.85,1497.14,3334,12187,8853
861,578.09,17298.31,1498.68,2513,11415,8902
862,578.14,17296.78,1500.22,3522,12703,9181
863,578.19,17295.24,1501.75,4033,12943,8910
864,578.25,17293.71,1503.29,2596,11724,9128
865,578.3,17292.17,1504.82,2793,12068,9275
866,578.35,17290.64,1506.35,3286,12446,9160
867,578.4,17289.1,1507.89,2421,11543,9122
868,578.45,17287.57,1509.42,3558,12799,9241
869,578.5,17286.04,1510.95,2622,12180,9558
870,578.55,17284.51,1512.49,2423,11989,9566
871,578.6,17282.98,1514.02,3149,12803,9654
872,578.66,17281.44,1515.55,2829,12283,9454
873,578.71,17279.91,1517.08,2725,12814,10089
874,578.76,17278.38,1518.61,2597,12352,9755
875,578.81,17276.85,1520.14,3471,13623,10152
876,578.86,17275.32,1521.67,2255,12602,10347
877,578.91,17273.8,1523.2,2754,13064,10310
878,578.96,17272.27,1524.73,3016,13614,10598
879,579.01,17270.74,1526.25,2872,13749,10877
880,579.07,17269.21,1527.78,2858,13846,10988
881,579.12,17267.68,1529.31,2633,14000,11367
882,579.17,17266.16,1530.83,2591,14141,11550
883,579.22,17264.63,1532.36,3322,15092,11770
884,579.27,17263.11,1533.89,3018,14922,11904
885,579.32,17261.58,1535.41,2738,15187,12449
886,579.37,17260.06,1536.94,2751,15382,12631
887,579.42,17258.53,1538.46,2551,15946,13395
888,579.47,17257.01,1539.98,2706,16116,13410
889,579.53,17255.48,1541.51,3037,17422,14385
890,579.58,17253.96,1543.03,2604,17049,14445
891,579.63,17252.44,1544.55,2907,18143,15236
892,579.68,17250.92,1546.08,3243,18769,15526
893,579.73,17249.39,1547.6,2655,18774,16119
894,579.78,17247.87,1549.12,3065,20068,17003
895,579.83,17246.35,1550.64,2750,19860,17110
896,579.88,17244.83,1552.16,2748,21359,18611
897,579.93,17243.31,1553.68,2928,22129,19201
898,579.99,17241.79,1555.2,2883,23364,20481
899,580.04,17240.27,1556.72,2247,23009,20762
900,580.09,17238.76,1558.24,2478,24215,21737
901,580.14,17237.24,1559.76,3171,25248,22077
902,580.19,17235.72,1561.27,2719,25488,22769
903,580.24,17234.2,1562.79,2977,26614,23637
904,580.29,17232.69,1564.31,2691,27164,24473
905,580.34,17231.17,1565.82,2325,27713,25388
906,580.39,17229.65,1567.34,2353,28174,25821
907,580.45,17228.14,1568.85,2619,29112,26493
908,580.5,17226.62,1570.37,2688,29592,26904
909,580.55,17225.11,1571.88,2792,30390,27598
910,580.6,17223.59,1573.4,3883,31658,27775
911,580.65,17222.08,1574.91,2807,30774,27967
912,580.7,17220.57,1576.42,2445,30455,28010
913,580.75,17219.06,1577.94,2678,30897,28219
914,580.8,17217.54,1579.45,2636,30412,27776
915,580.85,17216.03,1580.96,2739,30499,27760
916,580.9,17214.52,1582.47,2760,29905,27145
917,580.96,17213.01,1583.98,2690,29606,26916
918,581.01,17211.5,1585.49,5136,31552,26416
919,581.06,17209.99,1587,3205,28956,25751
920,581.11,17208.48,1588.51,2671,27960,25289
921,581.16,17206.97,1590.02,2584,27244,24660
922,581.21,17205.46,1591.53,2606,27117,24511
923,581.26,17203.95,1593.04,2942,27290,24348
924,581.31,17202.44,1594.55,2484,25796,23312
925,581.36,17200.94,1596.06,3031,26171,23140
926,581.41,17199.43,1597.56,3131,25497,22366
927,581.47,17197.92,1599.07,2876,24733,21857
928,581.52,17196.42,1600.57,2278,24130,21852
929,581.57,17194.91,1602.08,2693,24450,21757
930,581.62,17193.41,1603.59,2567,24459,21892
931,581.67,17191.9,1605.09,3090,24270,21180
932,581.72,17190.4,1606.59,2696,23185,20489
933,581.77,17188.89,1608.1,2651,23591,20940
934,581.82,17187.39,1609.6,2802,23007,20205
935,581.87,17185.89,1611.1,2935,22518,19583
936,581.92,17184.39,1612.61,2475,22014,19539
937,581.97,17182.88,1614.11,2834,21662,18828
938,582.03,17181.38,1615.61,2501,21014,18513
939,582.08,17179.88,1617.11,2398,20134,17736
940,582.13,17178.38,1618.61,2718,19492,16774
941,582.18,17176.88,1620.11,2614,18752,16138
942,582.23,17175.38,1621.61,2886,18305,15419
943,582.28,17173.88,1623.11,2702,17424,14722
944,582.33,17172.38,1624.61,2864,17058,14194
945,582.38,17170.88,1626.11,2902,16377,13475
946,582.43,17169.39,1627.61,2852,15572,12720
947,582.48,17167.89,1629.1,2629,14897,12268
948,582.53,17166.39,1630.6,2821,14518,11697
949,582.58,17164.89,1632.1,3948,14889,10941
950,582.64,17163.4,1633.59,2987,13654,10667
951,582.69,17161.9,1635.09,3276,13300,10024
952,582.74,17160.41,1636.59,2602,12526,9924
953,582.79,17158.91,1638.08,2632,12168,9536
954,582.84,17157.42,1639.57,3409,12348,8939
955,582.89,17155.92,1641.07,3465,11930,8465
956,582.94,17154.43,1642.56,3069,11132,8063
957,582.99,17152.94,1644.06,3195,11262,8067
958,583.04,17151.44,1645.55,2674,10519,7845
959,583.09,17149.95,1647.04,2869,10435,7566
960,583.14,17148.46,1648.53,2297,9770,7473
961,583.19,17146.97,1650.02,2524,9578,7054
962,583.24,17145.48,1651.51,2208,9261,7053
963,583.29,17143.99,1653,2451,9323,6872
964,583.35,17142.5,1654.49,2887,9518,6631
965,583.4,17141.01,1655.98,3082,9639,6557
966,583.45,17139.52,1657.47,2920,9062,6142
967,583.5,17138.03,1658.96,2822,9027,6205
968,583.55,17136.54,1660.45,2472,8432,5960
969,583.6,17135.05,1661.94,2955,9040,6085
970,583.65,17133.57,1663.43,2930,8960,6030
971,583.7,17132.08,1664.91,2922,8697,5775
972,583.75,17130.59,1666.4,2487,8012,5525
973,583.8,17129.11,1667.88,3188,8635,5447
974,583.85,17127.62,1669.37,2631,7996,5365
975,583.9,17126.14,1670.86,2818,8277,5459
976,583.95,17124.65,1672.34,3023,8499,5476
977,584,17123.17,1673.82,2656,8026,5370
978,584.05,17121.68,1675.31,2529,7623,5094
979,584.11,17120.2,1676.79,2701,7853,5152
980,584.16,17118.72,1678.27,2713,7869,5156
981,584.21,17117.24,1679.76,2961,8196,5235
982,584.26,17115.75,1681.24,2840,7682,4842
983,584.31,17114.27,1682.72,2743,7805,5062
984,584.36,17112.79,1684.2,2698,7509,4811
985,584.41,17111.31,1685.68,2879,7728,4849
986,584.46,17109.83,1687.16,2406,7318,4912
987,584.51,17108.35,1688.64,2738,7525,4787
988,584.56,17106.87,1690.12,2928,7590,4662
989,584.61,17105.39,1691.6,2925,7376,4451
990,584.66,17103.91,1693.08,2567,7266,4699
991,584.71,17102.43,1694.56,3327,7836,4509
992,584.76,17100.96,1696.04,3243,7766,4523
993,584.81,17099.48,1697.51,3313,8085,4772
994,584.86,17098,1698.99,3623,8119,4496
995,584.91,17096.53,1700.47,2734,7430,4696
996,584.96,17095.05,1701.94,3089,7765,4676
997,585.02,17093.58,1703.42,2586,6995,4409
998,585.07,17092.1,1704.89,2673,7164,4491
999,585.12,17090.63,1706.37,2786,7207,4421
1000,585.17,17089.15,1707.84,2816,6993,4177
1001,585.22,17087.68,1709.31,2645,6886,4241
1002,585.27,17086.2,1710.79,2824,7191,4367
1003,585.32,17084.73,1712.26,2890,7110,4220
1004,585.37,17083.26,1713.73,2586,6751,4165
1005,585.42,17081.79,1715.2,2609,6951,4342
1006,585.47,17080.32,1716.68,2450,6680,4230
1007,585.52,17078.85,1718.15,2905,6982,4077
1008,585.57,17077.37,1719.62,3204,7495,4291
1009,585.62,17075.9,1721.09,2554,7010,4456
1010,585.67,17074.43,1722.56,2362,6667,4305
1011,585.72,17072.97,1724.03,2543,6778,4235
1012,585.77,17071.5,1725.5,2732,6987,4255
1013,585.82,17070.03,1726.96,2435,6442,4007
1014,585.87,17068.56,1728.43,2742,6917,4175
1015,585.92,17067.09,1729.9,2574,6825,4251
1016,585.97,17065.63,1731.37,3032,7182,4150
1017,586.02,17064.16,1732.83,2976,7248,4272
1018,586.07,17062.69,1734.3,3090,7125,4035
1019,586.12,17061.23,1735.77,2944,7137,4193
1020,586.17,17059.76,1737.23,3234,7303,4069
1021,586.23,17058.3,1738.7,2673,6666,3993
1022,586.28,17056.83,1740.16,2656,6500,3844
1023,586.33,17055.37,1741.62,2562,6576,4014
1024,586.38,17053.9,1743.09,2823,6831,4008
1025,586.43,17052.44,1744.55,3443,7623,4180
1026,586.48,17050.98,1746.01,2449,6617,4168
1027,586.53,17049.52,1747.48,2574,6612,4038
1028,586.58,17048.05,1748.94,2580,6394,3814
1029,586.63,17046.59,1750.4,2908,6936,4028
1030,586.68,17045.13,1751.86,2286,6315,4029
1031,586.73,17043.67,1753.32,3228,7252,4024
1032,586.78,17042.21,1754.78,2666,6584,3918
1033,586.83,17040.75,1756.24,2712,6676,3964
1034,586.88,17039.29,1757.7,3181,7080,3899
1035,586.93,17037.83,1759.16,2939,7089,4150
1036,586.98,17036.37,1760.62,3351,7396,4045
1037,587.03,17034.92,1762.08,2299,6442,4143
1038,587.08,17033.46,1763.53,2209,6378,4169
1039,587.13,17032,1764.99,2601,6538,3937
1040,587.18,17030.55,1766.45,3054,7016,3962
1041,587.23,17029.09,1767.9,3178,7150,3972
1042,587.28,17027.63,1769.36,2629,6734,4105
1043,587.33,17026.18,1770.81,2591,6642,4051
1044,587.38,17024.72,1772.27,3050,6993,3943
1045,587.43,17023.27,1773.72,2939,6846,3907
1046,587.48,17021.82,1775.18,3123,7136,4013
1047,587.53,17020.36,1776.63,2698,6623,3925
1048,587.58,17018.91,1778.08,2130,5950,3820
1049,587.63,17017.46,1779.54,2339,6366,4027
1050,587.68,17016,1780.99,2283,6220,3937
1051,587.73,17014.55,1782.44,2665,6609,3944
1052,587.78,17013.1,1783.89,3186,7080,3894
1053,587.83,17011.65,1785.34,2644,6694,4050
1054,587.88,17010.2,1786.79,2692,6622,3930
1055,587.93,17008.75,1788.24,3417,7226,3809
1056,587.98,17007.3,1789.69,3007,6799,3792
1057,588.03,17005.85,1791.14,2747,6879,4132
1058,588.08,17004.4,1792.59,2275,6485,4210
1059,588.13,17002.95,1794.04,2396,6297,3901
1060,588.18,17001.5,1795.49,3358,7292,3934
1061,588.23,17000.06,1796.94,3266,7254,3988
1062,588.28,16998.61,1798.38,2708,6678,3970
1063,588.33,16997.16,1799.83,3270,7294,4024
1064,588.38,16995.72,1801.28,2765,6754,3989
1065,588.43,16994.27,1802.72,2602,6534,3932
1066,588.48,16992.83,1804.17,2736,6643,3907
1067,588.53,16991.38,1805.61,2735,6463,3728
1068,588.58,16989.94,1807.06,2365,6283,3918
1069,588.63,16988.49,1808.5,2567,6455,3888
1070,588.68,16987.05,1809.94,2879,6858,3979
1071,588.73,16985.61,1811.39,2981,6767,3786
1072,588.78,16984.16,1812.83,3144,7084,3940
1073,588.83,16982.72,1814.27,2693,6354,3661
1074,588.88,16981.28,1815.71,2758,6512,3754
1075,588.93,16979.84,1817.16,3498,7318,3820
1076,588.98,16978.4,1818.6,3856,7675,3819
1077,589.03,16976.96,1820.04,3286,7302,4016
1078,589.08,16975.52,1821.48,2838,6766,3928
1079,589.13,16974.08,1822.92,2864,6670,3806
1080,589.18,16972.64,1824.36,3135,7214,4079
1081,589.23,16971.2,1825.79,2849,6729,3880
1082,589.28,16969.76,1827.23,2957,7068,4111
1083,589.33,16968.32,1828.67,2890,6667,3777
1084,589.38,16966.88,1830.11,2788,6519,3731
1085,589.43,16965.45,1831.55,2338,6391,4053
1086,589.48,16964.01,1832.98,2842,6578,3736
1087,589.53,16962.57,1834.42,2931,6803,3872
1088,589.58,16961.14,1835.85,2638,6599,3961
1089,589.63,16959.7,1837.29,3251,7285,4034
1090,589.68,16958.27,1838.72,2641,6636,3995
1091,589.73,16956.83,1840.16,2367,5979,3612
1092,589.78,16955.4,1841.59,2703,6646,3943
1093,589.83,16953.97,1843.03,2896,6690,3794
1094,589.88,16952.53,1844.46,2712,6623,3911
1095,589.93,16951.1,1845.89,3046,6775,3729
1096,589.98,16949.67,1847.33,2583,6539,3956
1097,590.03,16948.24,1848.76,2682,6514,3832
1098,590.08,16946.8,1850.19,2500,6491,3991
1099,590.13,16945.37,1851.62,2571,6534,3963
1100,590.18,16943.94,1853.05,2857,6651,3794
1101,590.23,16942.51,1854.48,2531,6343,3812
1102,590.28,16941.08,1855.91,2438,6289,3851
1103,590.33,16939.65,1857.34,3275,7048,3773
1104,590.38,16938.22,1858.77,2904,6884,3980
1105,590.43,16936.8,1860.2,3024,7052,4028
1106,590.48,16935.37,1861.63,2698,6579,3881
1107,590.53,16933.94,1863.05,2925,6993,4068
1108,590.58,16932.51,1864.48,3257,7228,3971
1109,590.63,16931.09,1865.91,3242,7229,3987
1110,590.68,16929.66,1867.33,3273,7181,3908
1111,590.73,16928.23,1868.76,2743,6838,4095
1112,590.78,16926.81,1870.18,2997,7070,4073
1113,590.83,16925.38,1871.61,3028,7050,4022
1114,590.88,16923.96,1873.03,2755,6700,3945
1115,590.93,16922.53,1874.46,4550,8517,3967
1116,590.98,16921.11,1875.88,2975,6833,3858
1117,591.03,16919.69,1877.31,2685,6580,3895
1118,591.08,16918.26,1878.73,3115,7159,4044
1119,591.13,16916.84,1880.15,3303,7287,3984
1120,591.18,16915.42,1881.57,3291,7329,4038
1121,591.23,16914,1883,2510,6394,3884
1122,591.28,16912.58,1884.42,2911,6717,3806
1123,591.33,16911.16,1885.84,3091,7101,4010
1124,591.38,16909.74,1887.26,3185,7032,3847
1125,591.42,16908.32,1888.68,2301,6105,3804
1126,591.47,16906.9,1890.1,2955,6925,3970
1127,591.52,16905.48,1891.52,2867,6718,3851
1128,591.57,16904.06,1892.93,2792,6722,3930
1129,591.62,16902.64,1894.35,2404,6346,3942
1130,591.67,16901.22,1895.77,2727,6607,3880
1131,591.72,16899.8,1897.19,3239,7133,3894
1132,591.77,16898.39,1898.6,2879,6755,3876
1133,591.82,16896.97,1900.02,2685,6483,3798
1134,591.87,16895.56,1901.44,2381,6172,3791
1135,591.92,16894.14,1902.85,2627,6620,3993
1136,591.97,16892.72,1904.27,2828,6700,3872
1137,592.02,16891.31,1905.68,2771,6580,3809
1138,592.07,16889.9,1907.1,3026,6925,3899
1139,592.12,16888.48,1908.51,2843,6803,3960
1140,592.17,16887.07,1909.92,2486,6349,3863
1141,592.22,16885.65,1911.34,2860,6899,4039
1142,592.27,16884.24,1912.75,2704,6543,3839
1143,592.32,16882.83,1914.16,2533,6460,3927
1144,592.37,16881.42,1915.57,2442,6373,3931
1145,592.42,16880.01,1916.99,3466,7109,3643
1146,592.47,16878.6,1918.4,2761,6685,3924
1147,592.52,16877.18,1919.81,3675,7336,3661
1148,592.57,16875.77,1921.22,2476,6160,3684
1149,592.61,16874.37,1922.63,3018,6873,3855
1150,592.66,16872.96,1924.04,2610,6363,3753
1151,592.71,16871.55,1925.45,3107,6929,3822
1152,592.76,16870.14,1926.85,3422,7104,3682
1153,592.81,16868.73,1928.26,2553,6531,3978
1154,592.86,16867.32,1929.67,2851,6842,3991
1155,592.91,16865.92,1931.08,3009,6758,3749
1156,592.96,16864.51,1932.48,2462,6310,3848
1157,593.01,16863.1,1933.89,2732,6453,3721
1158,593.06,16861.7,1935.3,2864,6949,4085
1159,593.11,16860.29,1936.7,2399,6166,3767
1160,593.16,16858.89,1938.11,2815,6682,3867
1161,593.21,16857.48,1939.51,2764,6655,3891
1162,593.26,16856.08,1940.91,3404,7206,3802
1163,593.31,16854.67,1942.32,2781,6645,3864
1164,593.36,16853.27,1943.72,5658,9730,4072
1165,593.41,16851.87,1945.12,3967,7962,3995
1166,593.46,16850.47,1946.53,2982,6798,3816
1167,593.5,16849.06,1947.93,2683,6495,3812
1168,593.55,16847.66,1949.33,2851,6625,3774
1169,593.6,16846.26,1950.73,2716,6632,3916
1170,593.65,16844.86,1952.13,2943,6914,3971
1171,593.7,16843.46,1953.53,3441,7141,3700
1172,593.75,16842.06,1954.93,2795,6626,3831
1173,593.8,16840.66,1956.33,3005,6814,3809
1174,593.85,16839.26,1957.73,2830,6848,4018
1175,593.9,16837.86,1959.13,2862,6855,3993
1176,593.95,16836.46,1960.53,3049,6852,3803
1177,594,16835.07,1961.93,3078,7065,3987
1178,594.05,16833.67,1963.32,2740,6541,3801
1179,594.1,16832.27,1964.72,2643,6612,3969
1180,594.15,16830.88,1966.12,3585,7411,3826
1181,594.2,16829.48,1967.51,2560,6513,3953
1182,594.24,16828.08,1968.91,2634,6434,3800
1183,594.29,16826.69,1970.3,2687,6530,3843
1184,594.34,16825.29,1971.7,2474,6194,3720
1185,594.39,16823.9,1973.09,3006,6989,3983
1186,594.44,16822.51,1974.49,2762,6655,3893
1187,594.49,16821.11,1975.88,2471,6490,4019
1188,594.54,16819.72,1977.27,2320,6348,4028
1189,594.59,16818.33,1978.67,2743,6510,3767
1190,594.64,16816.93,1980.06,2608,6404,3796
1191,594.69,16815.54,1981.45,2738,6752,4014
1192,594.74,16814.15,1982.84,2766,6575,3809
1193,594.79,16812.76,1984.23,3223,7071,3848
1194,594.84,16811.37,1985.62,2226,6275,4049
1195,594.88,16809.98,1987.01,2928,6647,3719
1196,594.93,16808.59,1988.4,2692,6514,3822
1197,594.98,16807.2,1989.79,2880,6633,3753
1198,595.03,16805.81,1991.18,2770,6606,3836
1199,595.08,16804.42,1992.57,2919,6959,4040
1200,595.13,16803.03,1993.96,2474,6486,4012
1201,595.18,16801.65,1995.35,3506,7296,3790
1202,595.23,16800.26,1996.73,2381,6415,4034
1203,595.28,16798.87,1998.12,3023,6764,3741
1204,595.33,16797.49,1999.51,2629,6482,3853
1205,595.38,16796.1,2000.89,2896,6894,3998
1206,595.43,16794.72,2002.28,2749,6646,3897
1207,595.47,16793.33,2003.66,2994,6992,3998
1208,595.52,16791.95,2005.05,2691,6637,3946
1209,595.57,16790.56,2006.43,2915,6860,3945
1210,595.62,16789.18,2007.82,3061,6895,3834
1211,595.67,16787.79,2009.2,3078,7050,3972
1212,595.72,16786.41,2010.58,2849,6550,3701
1213,595.77,16785.03,2011.96,3207,7160,3953
1214,595.82,16783.65,2013.35,2938,6885,3947
1215,595.87,16782.26,2014.73,2729,6335,3606
1216,595.92,16780.88,2016.11,2470,6566,4096
1217,595.97,16779.5,2017.49,3049,7183,4134
1218,596.01,16778.12,2018.87,2767,6616,3849
1219,596.06,16776.74,2020.25,2708,6768,4060
1220,596.11,16775.36,2021.63,2280,6150,3870
1221,596.16,16773.98,2023.01,2775,6649,3874
1222,596.21,16772.6,2024.39,3024,6884,3860
1223,596.26,16771.23,2025.77,2750,6859,4109
1224,596.31,16769.85,2027.15,3205,7200,3995
1225,596.36,16768.47,2028.52,2618,6445,3827
1226,596.41,16767.09,2029.9,2785,6770,3985
1227,596.46,16765.72,2031.28,2725,6669,3944
1228,596.5,16764.34,2032.65,2873,6786,3913
1229,596.55,16762.96,2034.03,3102,6904,3802
1230,596.6,16761.59,2035.4,2730,6620,3890
1231,596.65,16760.21,2036.78,2883,6561,3678
1232,596.7,16758.84,2038.15,2854,6791,3937
1233,596.75,16757.46,2039.53,3151,6971,3820
1234,596.8,16756.09,2040.9,3708,7454,3746
1235,596.85,16754.72,2042.28,3401,7455,4054
1236,596.9,16753.34,2043.65,2779,6758,3979
1237,596.94,16751.97,2045.02,2766,6482,3716
1238,596.99,16750.6,2046.39,3009,7084,4075
1239,597.04,16749.23,2047.76,3206,7030,3824
1240,597.09,16747.86,2049.14,3240,7203,3963
1241,597.14,16746.49,2050.51,2853,6772,3919
1242,597.19,16745.12,2051.88,2605,6426,3821
1243,597.24,16743.75,2053.25,3475,7359,3884
1244,597.29,16742.38,2054.62,2984,6891,3907
1245,597.34,16741.01,2055.99,2225,6190,3965
1246,597.38,16739.64,2057.35,2296,6027,3731
1247,597.43,16738.27,2058.72,3004,6950,3946
1248,597.48,16736.9,2060.09,2770,6683,3913
1249,597.53,16735.53,2061.46,2967,6838,3871
1250,597.58,16734.17,2062.83,2467,6354,3887
1251,597.63,16732.8,2064.19,2874,6786,3912
1252,597.68,16731.43,2065.56,3063,6884,3821
1253,597.73,16730.07,2066.92,2869,6929,4060
1254,597.77,16728.7,2068.29,2812,6671,3859
1255,597.82,16727.34,2069.65,3206,7198,3992
1256,597.87,16725.97,2071.02,2562,6451,3889
1257,597.92,16724.61,2072.38,3021,6869,3848
1258,597.97,16723.25,2073.75,3483,7216,3733
1259,598.02,16721.88,2075.11,2587,6472,3885
1260,598.07,16720.52,2076.47,2809,6682,3873
1261,598.12,16719.16,2077.84,2691,6650,3959
1262,598.17,16717.79,2079.2,2962,6986,4024
1263,598.21,16716.43,2080.56,3114,6894,3780
1264,598.26,16715.07,2081.92,2500,6579,4079
1265,598.31,16713.71,2083.28,2773,6812,4039
1266,598.36,16712.35,2084.64,2914,6891,3977
1267,598.41,16710.99,2086,2393,6343,3950
1268,598.46,16709.63,2087.36,2506,6497,3991
1269,598.51,16708.27,2088.72,3082,6790,3708
1270,598.55,16706.91,2090.08,3631,7600,3969
1271,598.6,16705.55,2091.44,3051,6856,3805
1272,598.65,16704.2,2092.8,3672,7523,3851
1273,598.7,16702.84,2094.15,2874,6581,3707
1274,598.75,16701.48,2095.51,3326,7186,3860
1275,598.8,16700.12,2096.87,2682,6475,3793
1276,598.85,16698.77,2098.22,2920,6899,3979
1277,598.9,16697.41,2099.58,2866,6619,3753
1278,598.94,16696.06,2100.94,2696,6618,3922
1279,598.99,16694.7,2102.29,2721,6679,3958
1280,599.04,16693.35,2103.64,3199,7021,3822
1281,599.09,16691.99,2105,3911,7591,3680
1282,599.14,16690.64,2106.35,3400,7402,4002
1283,599.19,16689.29,2107.71,2431,6333,3902
1284,599.24,16687.93,2109.06,3160,6797,3637
1285,599.28,16686.58,2110.41,3872,7658,3786
1286,599.33,16685.23,2111.76,2889,6604,3715
1287,599.38,16683.88,2113.12,2989,6543,3554
1288,599.43,16682.53,2114.47,4999,8945,3946
1289,599.48,16681.17,2115.82,2252,6165,3913
1290,599.53,16679.82,2117.17,2683,6535,3852
1291,599.58,16678.47,2118.52,3182,7051,3869
1292,599.62,16677.12,2119.87,2370,6229,3859
1293,599.67,16675.78,2121.22,3006,6918,3912
1294,599.72,16674.43,2122.57,3125,6909,3784
1295,599.77,16673.08,2123.91,2722,6569,3847
1296,599.82,16671.73,2125.26,2357,6064,3707
1297,599.87,16670.38,2126.61,3124,6956,3832
1298,599.91,16669.04,2127.96,2612,6525,3913
1299,599.96,16667.69,2129.3,2692,6629,3937
1300,600.01,16666.34,2130.65,3391,7212,3821
1301,600.06,16665,2132,3191,7092,3901
1302,600.11,16663.65,2133.34,2729,6395,3666
1303,600.16,16662.31,2134.69,2825,6757,3932
1304,600.21,16660.96,2136.03,2751,6564,3813
1305,600.25,16659.62,2137.38,2531,6331,3800
1306,600.3,16658.27,2138.72,2995,6841,3846
1307,600.35,16656.93,2140.06,2746,6538,3792
1308,600.4,16655.59,2141.41,3655,7436,3781
1309,600.45,16654.24,2142.75,2888,6892,4004
1310,600.5,16652.9,2144.09,2192,6240,4048
1311,600.54,16651.56,2145.43,2426,6418,3992
1312,600.59,16650.22,2146.77,3044,6855,3811
1313,600.64,16648.88,2148.11,2466,6315,3849
1314,600.69,16647.54,2149.46,3043,6914,3871
1315,600.74,16646.2,2150.8,2680,6481,3801
1316,600.79,16644.86,2152.14,3514,7363,3849
1317,600.83,16643.52,2153.47,2440,6112,3672
1318,600.88,16642.18,2154.81,2464,6309,3845
1319,600.93,16640.84,2156.15,3268,7049,3781
1320,600.98,16639.5,2157.49,3000,6747,3747
1321,601.03,16638.16,2158.83,3504,7306,3802
1322,601.08,16636.83,2160.16,3534,7424,3890
1323,601.12,16635.49,2161.5,2770,6758,3988
1324,601.17,16634.15,2162.84,2797,6839,4042
1325,601.22,16632.82,2164.17,3150,6814,3664
1326,601.27,16631.48,2165.51,2682,6533,3851
1327,601.32,16630.15,2166.85,2464,6440,3976
1328,601.37,16628.81,2168.18,2634,6547,3913
1329,601.41,16627.48,2169.51,2868,6844,3976
1330,601.46,16626.14,2170.85,2432,6333,3901
1331,601.51,16624.81,2172.18,2750,6639,3889
1332,601.56,16623.48,2173.52,2877,6839,3962
1333,601.61,16622.14,2174.85,2373,6406,4033
1334,601.66,16620.81,2176.18,2433,6054,3621
1335,601.7,16619.48,2177.51,4293,8006,3713
1336,601.75,16618.15,2178.84,2649,6600,3951
1337,601.8,16616.82,2180.17,2969,6930,3961
1338,601.85,16615.49,2181.51,3237,7014,3777
1339,601.9,16614.16,2182.84,3130,6691,3561
1340,601.94,16612.83,2184.17,2873,6578,3705
1341,601.99,16611.5,2185.49,2816,6658,3842
1342,602.04,16610.17,2186.82,2897,6592,3695
1343,602.09,16608.84,2188.15,2826,6557,3731
1344,602.14,16607.51,2189.48,3286,7326,4040
1345,602.19,16606.18,2190.81,2674,6434,3760
1346,602.23,16604.86,2192.14,2697,6559,3862
1347,602.28,16603.53,2193.46,2799,6392,3593
1348,602.33,16602.2,2194.79,3237,7258,4021
1349,602.38,16600.88,2196.12,2724,6507,3783
1350,602.43,16599.55,2197.44,2538,6410,3872
1351,602.47,16598.23,2198.77,3299,7143,3844
1352,602.52,16596.9,2200.09,2808,6620,3812
1353,602.57,16595.58,2201.42,2870,6648,3778
1354,602.62,16594.25,2202.74,3050,6913,3863
1355,602.67,16592.93,2204.06,3295,7191,3896
1356,602.71,16591.6,2205.39,2748,6597,3849
1357,602.76,16590.28,2206.71,3150,6919,3769
1358,602.81,16588.96,2208.03,3815,7699,3884
1359,602.86,16587.64,2209.36,2787,6473,3686
1360,602.91,16586.32,2210.68,2463,6386,3923
1361,602.95,16584.99,2212,2980,6838,3858
1362,603,16583.67,2213.32,2374,6151,3777
1363,603.05,16582.35,2214.64,2782,6480,3698
1364,603.1,16581.03,2215.96,2353,6153,3800
1365,603.15,16579.71,2217.28,2693,6662,3969
1366,603.19,16578.39,2218.6,2507,6301,3794
1367,603.24,16577.08,2219.92,2741,6672,3931
1368,603.29,16575.76,2221.24,2767,6679,3912
1369,603.34,16574.44,2222.55,2627,6548,3921
1370,603.39,16573.12,2223.87,2550,6305,3755
1371,603.43,16571.8,2225.19,3385,7088,3703
1372,603.48,16570.49,2226.51,2556,6625,4069
1373,603.53,16569.17,2227.82,4322,8133,3811
1374,603.58,16567.85,2229.14,2337,6295,3958
1375,603.63,16566.54,2230.45,2462,6199,3737
1376,603.67,16565.22,2231.77,2878,6692,3814
1377,603.72,16563.91,2233.08,2554,6257,3703
1378,603.77,16562.59,2234.4,2753,6576,3823
1379,603.82,16561.28,2235.71,3044,6679,3635
1380,603.87,16559.97,2237.03,2612,6551,3939
1381,603.91,16558.65,2238.34,2522,6226,3704
1382,603.96,16557.34,2239.65,3179,6943,3764
1383,604.01,16556.03,2240.96,2995,6716,3721
1384,604.06,16554.72,2242.28,3181,6918,3737
1385,604.11,16553.41,2243.59,2443,6450,4007
1386,604.15,16552.09,2244.9,2819,6723,3904
1387,604.2,16550.78,2246.21,2984,6894,3910
1388,604.25,16549.47,2247.52,2818,6568,3750
1389,604.3,16548.16,2248.83,3137,6845,3708
1390,604.34,16546.85,2250.14,2989,6742,3753
1391,604.39,16545.55,2251.45,2608,6574,3966
1392,604.44,16544.24,2252.76,3369,7220,3851
1393,604.49,16542.93,2254.06,2625,6533,3908
1394,604.54,16541.62,2255.37,2526,6278,3752
1395,604.58,16540.31,2256.68,3533,7341,3808
1396,604.63,16539.01,2257.99,2414,6335,3921
1397,604.68,16537.7,2259.29,2910,6747,3837
1398,604.73,16536.39,2260.6,3104,6926,3822
1399,604.77,16535.09,2261.91,3075,6958,3883
1400,604.82,16533.78,2263.21,2545,6285,3740
1401,604.87,16532.48,2264.52,2418,6243,3825
1402,604.92,16531.17,2265.82,2929,6676,3747
1403,604.97,16529.87,2267.12,2796,6483,3687
1404,605.01,16528.56,2268.43,3031,6813,3782
1405,605.06,16527.26,2269.73,2514,6411,3897
1406,605.11,16525.96,2271.03,2621,6530,3909
1407,605.16,16524.65,2272.34,2573,6562,3989
1408,605.2,16523.35,2273.64,2295,6129,3834
1409,605.25,16522.05,2274.94,2651,6497,3846
1410,605.3,16520.75,2276.24,2611,6514,3903
1411,605.35,16519.45,2277.54,2198,6156,3958
1412,605.39,16518.15,2278.84,3206,7067,3861
1413,605.44,16516.85,2280.14,2569,6535,3966
1414,605.49,16515.55,2281.44,2971,6792,3821
1415,605.54,16514.25,2282.74,2653,6336,3683
1416,605.59,16512.95,2284.04,2688,6534,3846
1417,605.63,16511.65,2285.34,2533,6403,3870
1418,605.68,16510.35,2286.64,2435,6170,3735
1419,605.73,16509.06,2287.94,2887,6793,3906
1420,605.78,16507.76,2289.23,3249,7159,3910
1421,605.82,16506.46,2290.53,2667,6525,3858
1422,605.87,16505.16,2291.83,2666,6486,3820
1423,605.92,16503.87,2293.12,2536,6408,3872
1424,605.97,16502.57,2294.42,2593,6491,3898
1425,606.01,16501.28,2295.72,2879,6718,3839
1426,606.06,16499.98,2297.01,3332,7303,3971
1427,606.11,16498.69,2298.3,3102,6685,3583
1428,606.16,16497.39,2299.6,2561,6446,3885
1429,606.2,16496.1,2300.89,2692,6555,3863
1430,606.25,16494.81,2302.19,2513,6288,3775
1431,606.3,16493.51,2303.48,2744,6439,3695
1432,606.35,16492.22,2304.77,3271,6940,3669
1433,606.39,16490.93,2306.06,2565,6590,4025
1434,606.44,16489.64,2307.35,2869,6701,3832
1435,606.49,16488.35,2308.65,2743,6555,3812
1436,606.54,16487.06,2309.94,2437,6305,3868
1437,606.58,16485.76,2311.23,2952,6634,3682
1438,606.63,16484.47,2312.52,2901,6661,3760
1439,606.68,16483.19,2313.81,2500,6360,3860
1440,606.73,16481.9,2315.1,2900,6528,3628
1441,606.77,16480.61,2316.39,2844,6563,3719
1442,606.82,16479.32,2317.67,3028,6814,3786
1443,606.87,16478.03,2318.96,2962,6828,3866
1444,606.92,16476.74,2320.25,2810,6687,3877
1445,606.96,16475.46,2321.54,2572,6595,4023
1446,607.01,16474.17,2322.82,2775,6700,3925
1447,607.06,16472.88,2324.11,3071,7048,3977
1448,607.11,16471.6,2325.4,2690,7229,4539
1449,607.15,16470.31,2326.68,2362,7260,4898
1450,607.2,16469.03,2327.97,2639,8506,5867
1451,607.25,16467.74,2329.25,2451,8849,6398
1452,607.3,16466.46,2330.54,2926,9271,6345
1453,607.34,16465.17,2331.82,2887,8001,5114
1454,607.39,16463.89,2333.1,3121,7303,4182
1455,607.44,16462.6,2334.39,2774,6614,3840
1456,607.48,16461.32,2335.67,3174,7094,3920
1457,607.53,16460.04,2336.95,2984,6637,3653
1458,607.58,16458.76,2338.24,2598,6341,3743
1459,607.63,16457.48,2339.52,3505,7331,3826
1460,607.67,16456.19,2340.8,2319,5952,3633
1461,607.72,16454.91,2342.08,2950,6869,3919
1462,607.77,16453.63,2343.36,2746,6451,3705
1463,607.82,16452.35,2344.64,2549,6414,3865
1464,607.86,16451.07,2345.92,2814,6568,3754
1465,607.91,16449.79,2347.2,2851,6622,3771
1466,607.96,16448.52,2348.48,3147,6943,3796
1467,608,16447.24,2349.76,2649,6374,3725
1468,608.05,16445.96,2351.03,2633,6468,3835
1469,608.1,16444.68,2352.31,2814,6724,3910
1470,608.15,16443.4,2353.59,2572,6143,3571
1471,608.19,16442.13,2354.87,2846,6552,3706
1472,608.24,16440.85,2356.14,3288,7026,3738
1473,608.29,16439.57,2357.42,3058,7067,4009
1474,608.34,16438.3,2358.69,2906,6714,3808
1475,608.38,16437.02,2359.97,2280,6247,3967
1476,608.43,16435.75,2361.24,2880,6632,3752
1477,608.48,16434.47,2362.52,2882,6723,3841
1478,608.52,16433.2,2363.79,2654,6624,3970
1479,608.57,16431.93,2365.07,2806,6701,3895
1480,608.62,16430.65,2366.34,2683,6648,3965
1481,608.67,16429.38,2367.61,3882,7739,3857
1482,608.71,16428.11,2368.88,3248,7303,4055
1483,608.76,16426.84,2370.16,2334,6302,3968
1484,608.81,16425.56,2371.43,3035,6864,3829
1485,608.85,16424.29,2372.7,2830,6985,4155
1486,608.9,16423.02,2373.97,3162,7081,3919
1487,608.95,16421.75,2375.24,2867,6888,4021
1488,609,16420.48,2376.51,2718,6919,4201
1489,609.04,16419.21,2377.78,2598,6810,4212
1490,609.09,16417.94,2379.05,2462,6628,4166
1491,609.14,16416.67,2380.32,2672,6789,4117
1492,609.18,16415.4,2381.59,2806,6902,4096
1493,609.23,16414.14,2382.86,3669,7520,3851
1494,609.28,16412.87,2384.12,2849,6907,4058
1495,609.33,16411.6,2385.39,2977,6957,3980
1496,609.37,16410.33,2386.66,3424,7627,4203
1497,609.42,16409.07,2387.92,2929,6965,4036
1498,609.47,16407.8,2389.19,2796,6984,4188
1499,609.51,16406.54,2390.46,2647,6813,4166
1500,609.56,16405.27,2391.72,2835,6908,4073
1501,609.61,16404.01,2392.99,2965,7174,4209
1502,609.65,16402.74,2394.25,2579,6739,4160
1503,609.7,16401.48,2395.51,2483,6679,4196
1504,609.75,16400.21,2396.78,2764,6780,4016
1505,609.8,16398.95,2398.04,2806,6823,4017
1506,609.84,16397.69,2399.3,2568,6866,4298
1507,609.89,16396.43,2400.57,3171,7336,4165
1508,609.94,16395.16,2401.83,2702,6923,4221
1509,609.98,16393.9,2403.09,2611,6963,4352
1510,610.03,16392.64,2404.35,3827,8076,4249
1511,610.08,16391.38,2405.61,2890,7116,4226
1512,610.12,16390.12,2406.87,2713,7179,4466
1513,610.17,16388.86,2408.13,2856,7139,4283
1514,610.22,16387.6,2409.39,2679,6846,4167
1515,610.26,16386.34,2410.65,2841,7236,4395
1516,610.31,16385.08,2411.91,2965,7360,4395
1517,610.36,16383.82,2413.17,2385,6658,4273
1518,610.41,16382.56,2414.43,3039,7490,4451
1519,610.45,16381.31,2415.69,2388,6913,4525
1520,610.5,16380.05,2416.94,3417,7658,4241
1521,610.55,16378.79,2418.2,2916,7323,4407
1522,610.59,16377.53,2419.46,2590,7160,4570
1523,610.64,16376.28,2420.71,2454,6940,4486
1524,610.69,16375.02,2421.97,2997,7581,4584
1525,610.73,16373.77,2423.22,2631,7176,4545
1526,610.78,16372.51,2424.48,2748,7087,4339
1527,610.83,16371.26,2425.73,3042,7482,4440
1528,610.87,16370,2426.99,2809,7289,4480
1529,610.92,16368.75,2428.24,2795,7212,4417
1530,610.97,16367.5,2429.5,2888,7365,4477
1531,611.01,16366.24,2430.75,2590,7164,4574
1532,611.06,16364.99,2432,3105,7620,4515
1533,611.11,16363.74,2433.25,2595,7109,4514
1534,611.15,16362.49,2434.51,3157,7823,4666
1535,611.2,16361.24,2435.76,4212,8899,4687
1536,611.25,16359.98,2437.01,3100,7871,4771
1537,611.29,16358.73,2438.26,3102,7561,4459
1538,611.34,16357.48,2439.51,4096,8871,4775
1539,611.39,16356.23,2440.76,2663,7442,4779
1540,611.43,16354.98,2442.01,2411,7121,4710
1541,611.48,16353.74,2443.26,3045,7712,4667
1542,611.53,16352.49,2444.51,2750,7399,4649
1543,611.57,16351.24,2445.75,2942,7505,4563
1544,611.62,16349.99,2447,3374,8125,4751
1545,611.67,16348.74,2448.25,2970,7633,4663
1546,611.71,16347.5,2449.5,2418,7108,4690
1547,611.76,16346.25,2450.74,2735,7411,4676
1548,611.81,16345,2451.99,2782,7355,4573
1549,611.85,16343.76,2453.24,3098,7664,4566
1550,611.9,16342.51,2454.48,3072,7927,4855
1551,611.95,16341.27,2455.73,2675,7258,4583
1552,611.99,16340.02,2456.97,3146,7644,4498
1553,612.04,16338.78,2458.22,2534,7063,4529
1554,612.09,16337.53,2459.46,3482,8091,4609
1555,612.13,16336.29,2460.7,2960,7530,4570
1556,612.18,16335.05,2461.95,2383,7118,4735
1557,612.23,16333.8,2463.19,2891,7715,4824
1558,612.27,16332.56,2464.43,2459,7020,4561
1559,612.32,16331.32,2465.67,3310,7768,4458
1560,612.37,16330.08,2466.92,2857,7436,4579
1561,612.41,16328.84,2468.16,2974,7655,4681
1562,612.46,16327.6,2469.4,3400,8173,4773
1563,612.51,16326.35,2470.64,2730,7282,4552
1564,612.55,16325.11,2471.88,2611,7374,4763
1565,612.6,16323.88,2473.12,3223,7927,4704
1566,612.65,16322.64,2474.36,2731,7408,4677
1567,612.69,16321.4,2475.6,3278,7882,4604
1568,612.74,16320.16,2476.83,2520,7117,4597
1569,612.79,16318.92,2478.07,3037,7643,4606
1570,612.83,16317.68,2479.31,2748,7408,4660
1571,612.88,16316.45,2480.55,3181,7839,4658
1572,612.93,16315.21,2481.78,2556,7167,4611
1573,612.97,16313.97,2483.02,2442,7176,4734
1574,613.02,16312.74,2484.26,2931,7625,4694
1575,613.06,16311.5,2485.49,2859,7449,4590
1576,613.11,16310.27,2486.73,3286,8076,4790
1577,613.16,16309.03,2487.96,10795,17413,6618
1578,613.2,16307.8,2489.2,2706,7445,4739
1579,613.25,16306.56,2490.43,2832,7560,4728
1580,613.3,16305.33,2491.66,2756,7416,4660
1581,613.34,16304.09,2492.9,2649,7515,4866
1582,613.39,16302.86,2494.13,2872,7480,4608
1583,613.44,16301.63,2495.36,3123,7925,4802
1584,613.48,16300.4,2496.6,2955,7630,4675
1585,613.53,16299.16,2497.83,2451,7019,4568
1586,613.57,16297.93,2499.06,3216,7958,4742
1587,613.62,16296.7,2500.29,2660,7108,4448
1588,   ,   ,   ,2770,7590,4820
1589,   ,   ,   ,2790,7455,4665
1590,   ,   ,   ,3028,7680,4652
1591,   ,   ,   ,3139,7695,4556
1592,   ,   ,   ,3306,8072,4766
1593,   ,   ,   ,2877,7605,4728
1594,   ,   ,   ,3212,8046,4834
1595,   ,   ,   ,2704,7616,4912
1596,   ,   ,   ,2359,7062,4703
1597,   ,   ,   ,2733,7343,4610
1598,   ,   ,   ,2637,7493,4856
1599,   ,   ,   ,3400,8094,4694
1600,   ,   ,   ,3649,8435,4786
1601,   ,   ,   ,2527,7283,4756
1602,   ,   ,   ,2885,7721,4836
1603,   ,   ,   ,2476,7288,4812
1604,   ,   ,   ,3561,8084,4523
1605,   ,   ,   ,2751,7578,4827
1606,   ,   ,   ,3107,7810,4703
1607,   ,   ,   ,2845,7540,4695
1608,   ,   ,   ,3048,7608,4560
1609,   ,   ,   ,2729,7566,4837
1610,   ,   ,   ,2952,7597,4645
1611,   ,   ,   ,2719,7528,4809
1612,   ,   ,   ,2659,7393,4734
1613,   ,   ,   ,3002,7829,4827
1614,   ,   ,   ,2723,7779,5056
1615,   ,   ,   ,3001,7932,4931
1616,   ,   ,   ,2727,7488,4761
1617,   ,   ,   ,2944,7572,4628
1618,   ,   ,   ,3120,8022,4902
1619,   ,   ,   ,2725,7688,4963
1620,   ,   ,   ,2837,7821,4984
1621,   ,   ,   ,2920,7867,4947
1622,   ,   ,   ,3011,7983,4972
1623,   ,   ,   ,2950,7781,4831
1624,   ,   ,   ,3919,8795,4876
1625,   ,   ,   ,3086,7882,4796
1626,   ,   ,   ,2764,7769,5005
1627,   ,   ,   ,2719,7751,5032
1628,   ,   ,   ,3017,8058,5041
1629,   ,   ,   ,2483,7399,4916
1630,   ,   ,   ,5548,10644,5096
1631,   ,   ,   ,2670,7823,5153
1632,   ,   ,   ,2639,7863,5224
1633,   ,   ,   ,2997,8131,5134
1634,   ,   ,   ,3074,8196,5122
1635,   ,   ,   ,2279,7265,4986
1636,   ,   ,   ,2817,7961,5144
1637,   ,   ,   ,3691,8824,5133
1638,   ,   ,   ,2465,7618,5153
1639,   ,   ,   ,3031,8091,5060
1640,   ,   ,   ,2826,8121,5295
1641,   ,   ,   ,3262,8444,5182
1642,   ,   ,   ,3093,8404,5311
1643,   ,   ,   ,3043,8356,5313
1644,   ,   ,   ,2485,7874,5389
1645,   ,   ,   ,2826,8351,5525
1646,   ,   ,   ,2674,7958,5284
1647,   ,   ,   ,3001,8711,5710
1648,   ,   ,   ,2896,8355,5459
1649,   ,   ,   ,3333,8692,5359
1650,   ,   ,   ,2882,8484,5602
1651,   ,   ,   ,2647,8342,5695
1652,   ,   ,   ,3107,8636,5529
1653,   ,   ,   ,2358,8171,5813
1654,   ,   ,   ,2981,8647,5666
1655,   ,   ,   ,2558,8145,5587
1656,   ,   ,   ,3767,9490,5723
1657,   ,   ,   ,2912,8754,5842
1658,   ,   ,   ,2839,8514,5675
1659,   ,   ,   ,3331,9076,5745
1660,   ,   ,   ,3323,9185,5862
1661,   ,   ,   ,2951,8814,5863
1662,   ,   ,   ,2927,8903,5976
1663,   ,   ,   ,3355,9406,6051
1664,   ,   ,   ,2927,8884,5957
1665,   ,   ,   ,3232,9429,6197
1666,   ,   ,   ,2556,8523,5967
1667,   ,   ,   ,3089,9278,6189
1668,   ,   ,   ,3009,9188,6179
1669,   ,   ,   ,2751,9264,6513
1670,   ,   ,   ,3214,9509,6295
1671,   ,   ,   ,2651,9365,6714
1672,   ,   ,   ,3034,9595,6561
1673,   ,   ,   ,2427,8931,6504
1674,   ,   ,   ,3242,9732,6490
1675,   ,   ,   ,2936,9675,6739
1676,   ,   ,   ,3623,10415,6792
1677,   ,   ,   ,2327,9180,6853
1678,   ,   ,   ,2630,9420,6790
1679,   ,   ,   ,3222,10137,6915
1680,   ,   ,   ,3021,10127,7106
1681,   ,   ,   ,2636,9811,7175
1682,   ,   ,   ,2651,10205,7554
1683,   ,   ,   ,2567,9863,7296
1684,   ,   ,   ,3748,11285,7537
1685,   ,   ,   ,2797,10478,7681
1686,   ,   ,   ,2705,10390,7685
1687,   ,   ,   ,2841,10710,7869
1688,   ,   ,   ,2983,10920,7937
1689,   ,   ,   ,2859,10738,7879
1690,   ,   ,   ,2855,11082,8227
1691,   ,   ,   ,4052,12204,8152
1692,   ,   ,   ,3394,11560,8166
1693,   ,   ,   ,3089,11427,8338
1694,   ,   ,   ,3275,11841,8566
1695,   ,   ,   ,3057,11659,8602
1696,   ,   ,   ,2831,11219,8388
1697,   ,   ,   ,2643,11437,8794
1698,   ,   ,   ,2984,12068,9084
1699,   ,   ,   ,3090,12135,9045
1700,   ,   ,   ,2642,12040,9398
1701,   ,   ,   ,2851,12040,9189
1702,   ,   ,   ,3019,12487,9468
1703,   ,   ,   ,2655,12303,9648
1704,   ,   ,   ,2372,12485,10113
1705,   ,   ,   ,2844,12803,9959
1706,   ,   ,   ,3049,13081,10032
1707,   ,   ,   ,2750,13005,10255
1708,   ,   ,   ,3179,13418,10239
1709,   ,   ,   ,2999,13299,10300
1710,   ,   ,   ,2999,13411,10412
1711,   ,   ,   ,3196,14089,10893
1712,   ,   ,   ,2844,13627,10783
1713,   ,   ,   ,3019,14113,11094
1714,   ,   ,   ,3015,14125,11110
1715,   ,   ,   ,2620,13939,11319
1716,   ,   ,   ,2591,13807,11216
1717,   ,   ,   ,2547,14283,11736
1718,   ,   ,   ,2853,14504,11651
1719,   ,   ,   ,2943,14937,11994
1720,   ,   ,   ,2899,14846,11947
1721,   ,   ,   ,3010,15270,12260
1722,   ,   ,   ,4644,16906,12262
1723,   ,   ,   ,2776,15162,12386
1724,   ,   ,   ,2622,15187,12565
1725,   ,   ,   ,2862,15721,12859
1726,   ,   ,   ,2714,15614,12900
1727,   ,   ,   ,3443,16254,12811
1728,   ,   ,   ,3474,16153,12679
1729,   ,   ,   ,2795,15514,12719
1730,   ,   ,   ,3298,16554,13256
1731,   ,   ,   ,3044,16172,13128
1732,   ,   ,   ,3095,16352,13257
1733,   ,   ,   ,3190,16810,13620
1734,   ,   ,   ,3082,16436,13354
1735,   ,   ,   ,2786,16172,13386
1736,   ,   ,   ,2820,16303,13483
1737,   ,   ,   ,3094,16550,13456
1738,   ,   ,   ,4971,18521,13550
1739,   ,   ,   ,3375,16793,13418
1740,   ,   ,   ,4650,17726,13076
1741,   ,   ,   ,2917,16245,13328
1742,   ,   ,   ,2911,16487,13576
1743,   ,   ,   ,3058,16585,13527
1744,   ,   ,   ,3003,16711,13708
1745,   ,   ,   ,2806,16010,13204
1746,   ,   ,   ,2801,15834,13033
1747,   ,   ,   ,3206,16321,13115
1748,   ,   ,   ,3086,16070,12984
1749,   ,   ,   ,2787,15879,13092
1750,   ,   ,   ,3033,16010,12977
1751,   ,   ,   ,3609,16632,13023
1752,   ,   ,   ,3482,15996,12514
1753,   ,   ,   ,3110,15427,12317
1754,   ,   ,   ,2771,15417,12646
1755,   ,   ,   ,2567,14971,12404
1756,   ,   ,   ,3071,15205,12134
1757,   ,   ,   ,2937,15054,12117
1758,   ,   ,   ,3026,14916,11890
1759,   ,   ,   ,2539,14564,12025
1760,   ,   ,   ,3406,15370,11964
1761,   ,   ,   ,2810,14221,11411
1762,   ,   ,   ,3234,14661,11427
1763,   ,   ,   ,2992,14396,11404
1764,   ,   ,   ,2786,13978,11192
1765,   ,   ,   ,3480,14593,11113
1766,   ,   ,   ,3046,14081,11035
1767,   ,   ,   ,2735,13512,10777
1768,   ,   ,   ,2227,12788,10561
1769,   ,   ,   ,2251,12718,10467
1770,   ,   ,   ,2177,12481,10304
1771,   ,   ,   ,3255,13805,10550
1772,   ,   ,   ,2954,13041,10087
1773,   ,   ,   ,3291,13002,9711
1774,   ,   ,   ,2418,12080,9662
1775,   ,   ,   ,2830,12378,9548
1776,   ,   ,   ,3674,13342,9668
1777,   ,   ,   ,3063,12372,9309
1778,   ,   ,   ,2587,11800,9213
1779,   ,   ,   ,2662,11324,8662
1780,   ,   ,   ,2952,11714,8762
1781,   ,   ,   ,2849,11711,8862
1782,   ,   ,   ,2919,11524,8605
1783,   ,   ,   ,2866,11254,8388
1784,   ,   ,   ,2872,11242,8370
1785,   ,   ,   ,2581,10934,8353
1786,   ,   ,   ,3086,11070,7984
1787,   ,   ,   ,2355,10459,8104
1788,   ,   ,   ,2967,10804,7837
1789,   ,   ,   ,3048,10685,7637
1790,   ,   ,   ,2523,10315,7792
1791,   ,   ,   ,3158,10780,7622
1792,   ,   ,   ,3163,10606,7443
1793,   ,   ,   ,2736,10393,7657
1794,   ,   ,   ,3223,10691,7468
1795,   ,   ,   ,2836,10129,7293
1796,   ,   ,   ,2950,10090,7140
1797,   ,   ,   ,3189,10127,6938
1798,   ,   ,   ,2960,10034,7074
1799,   ,   ,   ,4123,11135,7012
1800,   ,   ,   ,2887,9626,6739
1801,   ,   ,   ,3897,10682,6785
1802,   ,   ,   ,3233,9909,6676
1803,   ,   ,   ,2577,9023,6446
1804,   ,   ,   ,2851,9280,6429
1805,   ,   ,   ,2778,9210,6432
1806,   ,   ,   ,3199,9445,6246
1807,   ,   ,   ,2569,8857,6288
1808,   ,   ,   ,2221,8579,6358
1809,   ,   ,   ,3027,9250,6223
1810,   ,   ,   ,2858,9245,6387
1811,   ,   ,   ,3131,9236,6105
1812,   ,   ,   ,2882,8994,6112
1813,   ,   ,   ,2592,8623,6031
1814,   ,   ,   ,2667,8805,6138
1815,   ,   ,   ,2849,8800,5951
1816,   ,   ,   ,2959,8971,6012
1817,   ,   ,   ,2902,8984,6082
1818,   ,   ,   ,2780,8623,5843
1819,   ,   ,   ,2757,8425,5668
1820,   ,   ,   ,3162,8809,5647
1821,   ,   ,   ,2968,8640,5672
1822,   ,   ,   ,3195,9020,5825
1823,   ,   ,   ,2880,8524,5644
1824,   ,   ,   ,2344,7990,5646
1825,   ,   ,   ,2292,7868,5576
1826,   ,   ,   ,3428,8979,5551
1827,   ,   ,   ,2900,8539,5639
1828,   ,   ,   ,2798,8287,5489
1829,   ,   ,   ,2941,8462,5521
1830,   ,   ,   ,2978,8132,5154
1831,   ,   ,   ,3042,8352,5310
1832,   ,   ,   ,2922,8444,5522
1833,   ,   ,   ,2692,8132,5440
1834,   ,   ,   ,2648,8170,5522
1835,   ,   ,   ,3239,8403,5164
1836,   ,   ,   ,3290,8541,5251
1837,   ,   ,   ,2578,7836,5258
1838,   ,   ,   ,2891,8107,5216
1839,   ,   ,   ,3481,8882,5401
1840,   ,   ,   ,3368,8693,5325
1841,   ,   ,   ,2436,7665,5229
1842,   ,   ,   ,2614,7852,5238
1843,   ,   ,   ,3140,8332,5192
1844,   ,   ,   ,2643,7798,5155
1845,   ,   ,   ,2451,7868,5417
1846,   ,   ,   ,2583,7808,5225
1847,   ,   ,   ,2580,7733,5153
1848,   ,   ,   ,3012,8315,5303
1849,   ,   ,   ,2466,7760,5294
1850,   ,   ,   ,2827,8143,5316
1851,   ,   ,   ,3037,8166,5129
1852,   ,   ,   ,2735,7864,5129
1853,   ,   ,   ,3118,8124,5006
1854,   ,   ,   ,2899,7791,4892
1855,   ,   ,   ,2891,7807,4916
1856,   ,   ,   ,2487,7546,5059
1857,   ,   ,   ,2363,7206,4843
1858,   ,   ,   ,2704,7696,4992
1859,   ,   ,   ,2758,7761,5003
1860,   ,   ,   ,2721,7727,5006
1861,   ,   ,   ,3155,8024,4869
1862,   ,   ,   ,3200,8322,5122
1863,   ,   ,   ,3058,8060,5002
1864,   ,   ,   ,2782,7627,4845
1865,   ,   ,   ,2667,7742,5075
1866,   ,   ,   ,2764,7790,5026
1867,   ,   ,   ,2609,7470,4861
1868,   ,   ,   ,3014,7977,4963
1869,   ,   ,   ,3187,8214,5027
1870,   ,   ,   ,2575,7489,4914
1871,   ,   ,   ,2932,7766,4834
1872,   ,   ,   ,3110,8022,4912
1873,   ,   ,   ,2524,7833,5309
1874,   ,   ,   ,2691,7749,5058
1875,   ,   ,   ,2723,7591,4868
1876,   ,   ,   ,2962,8000,5038
1877,   ,   ,   ,2735,7655,4920
1878,   ,   ,   ,3331,8467,5136
1879,   ,   ,   ,2774,7812,5038
1880,   ,   ,   ,2767,7775,5008
1881,   ,   ,   ,2415,7370,4955
1882,   ,   ,   ,3428,8397,4969
1883,   ,   ,   ,2660,7591,4931
1884,   ,   ,   ,2931,7888,4957
1885,   ,   ,   ,2487,7207,4720
1886,   ,   ,   ,3069,8113,5044
1887,   ,   ,   ,2819,7706,4887
1888,   ,   ,   ,2730,7670,4940
1889,   ,   ,   ,2531,7633,5102
1890,   ,   ,   ,2547,7640,5093
1891,   ,   ,   ,2871,8030,5159
1892,   ,   ,   ,2824,7823,4999
1893,   ,   ,   ,2743,7716,4973
1894,   ,   ,   ,2709,7651,4942
1895,   ,   ,   ,3018,8182,5164
1896,   ,   ,   ,2886,7943,5057
1897,   ,   ,   ,2782,7958,5176
1898,   ,   ,   ,2751,7651,4900
1899,   ,   ,   ,2410,7641,5231
1900,   ,   ,   ,2774,7787,5013
1901,   ,   ,   ,2727,7835,5108
1902,   ,   ,   ,3007,8204,5197
1903,   ,   ,   ,3237,8278,5041
1904,   ,   ,   ,3201,8199,4998
1905,   ,   ,   ,4418,9824,5406
1906,   ,   ,   ,3043,8188,5145
1907,   ,   ,   ,2455,7864,5409
1908,   ,   ,   ,3179,8418,5239
1909,   ,   ,   ,3097,8389,5292
1910,   ,   ,   ,2861,8050,5189
1911,   ,   ,   ,2839,7854,5015
1912,   ,   ,   ,2944,8537,5593
1913,   ,   ,   ,2856,8138,5282
1914,   ,   ,   ,2990,8408,5418
1915,   ,   ,   ,3269,8594,5325
1916,   ,   ,   ,3210,8538,5328
1917,   ,   ,   ,2342,7705,5363
1918,   ,   ,   ,2373,7799,5426
1919,   ,   ,   ,2962,8542,5580
1920,   ,   ,   ,2715,8063,5348
1921,   ,   ,   ,2654,7847,5193
1922,   ,   ,   ,3218,8550,5332
1923,   ,   ,   ,3790,8384,4594
1924,   ,   ,   ,4257,8312,4055
1925,   ,   ,   ,2399,7606,5207
1926,   ,   ,   ,2930,8516,5586
1927,   ,   ,   ,2941,8314,5373
1928,   ,   ,   ,2732,8428,5696
1929,   ,   ,   ,3079,8814,5735
1930,   ,   ,   ,3043,8495,5452
1931,   ,   ,   ,3072,8620,5548
1932,   ,   ,   ,2494,8085,5591
1933,   ,   ,   ,3320,8891,5571
1934,   ,   ,   ,2765,8308,5543
1935,   ,   ,   ,2317,7921,5604
1936,   ,   ,   ,2321,7800,5479
1937,   ,   ,   ,2346,7751,5405
1938,   ,   ,   ,3046,8688,5642
1939,   ,   ,   ,2579,8216,5637
1940,   ,   ,   ,2942,8576,5634
1941,   ,   ,   ,2985,8796,5811
1942,   ,   ,   ,2588,8190,5602
1943,   ,   ,   ,2463,8093,5630
1944,   ,   ,   ,2671,8448,5777
1945,   ,   ,   ,2878,8509,5631
1946,   ,   ,   ,3119,8648,5529
1947,   ,   ,   ,2977,8960,5983
1948,   ,   ,   ,2612,8250,5638
1949,   ,   ,   ,2935,8589,5654
1950,   ,   ,   ,2773,8374,5601
1951,   ,   ,   ,3205,8766,5561
1952,   ,   ,   ,2585,8313,5728
1953,   ,   ,   ,2644,8082,5438
1954,   ,   ,   ,3084,8791,5707
1955,   ,   ,   ,2450,8266,5816
1956,   ,   ,   ,3086,8693,5607
1957,   ,   ,   ,3092,8590,5498
1958,   ,   ,   ,2740,8545,5805
1959,   ,   ,   ,2604,8165,5561
1960,   ,   ,   ,2571,8176,5605
1961,   ,   ,   ,2958,8498,5540
1962,   ,   ,   ,2492,7917,5425
1963,   ,   ,   ,2960,8338,5378
1964,   ,   ,   ,2804,8396,5592
1965,   ,   ,   ,2877,8334,5457
1966,   ,   ,   ,2854,8350,5496
1967,   ,   ,   ,3594,8919,5325
1968,   ,   ,   ,3064,8486,5422
1969,   ,   ,   ,2788,8202,5414
1970,   ,   ,   ,3820,9401,5581
1971,   ,   ,   ,2437,7703,5266
1972,   ,   ,   ,3321,8513,5192
1973,   ,   ,   ,2624,7919,5295
1974,   ,   ,   ,2913,8293,5380
1975,   ,   ,   ,3088,8238,5150
1976,   ,   ,   ,3047,8130,5083
1977,   ,   ,   ,2902,8114,5212
1978,   ,   ,   ,3171,8466,5295
1979,   ,   ,   ,2598,7578,4980
1980,   ,   ,   ,2779,7893,5114
1981,   ,   ,   ,3081,8170,5089
1982,   ,   ,   ,2581,7624,5043
1983,   ,   ,   ,2610,7690,5080
1984,   ,   ,   ,2929,7977,5048
1985,   ,   ,   ,2938,7734,4796
1986,   ,   ,   ,2866,7822,4956
1987,   ,   ,   ,4343,9413,5070
1988,   ,   ,   ,3277,8129,4852
1989,   ,   ,   ,2935,7685,4750
1990,   ,   ,   ,2680,7488,4808
1991,   ,   ,   ,3381,8044,4663
1992,   ,   ,   ,2714,7389,4675
1993,   ,   ,   ,2449,7102,4653
1994,   ,   ,   ,2599,7520,4921
1995,   ,   ,   ,2794,7654,4860
1996,   ,   ,   ,3309,7824,4515
1997,   ,   ,   ,2404,7076,4672
1998,   ,   ,   ,2759,7337,4578
1999,   ,   ,   ,2940,7502,4562
2000,   ,   ,   ,2694,7157,4463
2001,   ,   ,   ,5188,9580,4392
2002,   ,   ,   ,3261,7551,4290
2003,   ,   ,   ,2395,6922,4527
2004,   ,   ,   ,2420,6786,4366
2005,   ,   ,   ,3403,8008,4605
2006,   ,   ,   ,3153,7606,4453
2007,   ,   ,   ,2805,7190,4385
2008,   ,   ,   ,2752,7139,4387
2009,   ,   ,   ,2865,7339,4474
2010,   ,   ,   ,2631,6936,4305
2011,   ,   ,   ,2961,7260,4299
2012,   ,   ,   ,3141,7335,4194
2013,   ,   ,   ,3104,7467,4363
2014,   ,   ,   ,3507,7557,4050
2015,   ,   ,   ,2631,6734,4103
2016,   ,   ,   ,2637,6787,4150
2017,   ,   ,   ,3246,7431,4185
2018,   ,   ,   ,2522,6497,3975
2019,   ,   ,   ,2891,7021,4130
2020,   ,   ,   ,2747,6936,4189
2021,   ,   ,   ,2827,6721,3894
2022,   ,   ,   ,2893,7119,4226
2023,   ,   ,   ,3007,6928,3921
2024,   ,   ,   ,2570,6654,4084
2025,   ,   ,   ,2866,6991,4125
2026,   ,   ,   ,2733,6659,3926
2027,   ,   ,   ,2607,6634,4027
2028,   ,   ,   ,2786,6799,4013
2029,   ,   ,   ,2825,6810,3985
2030,   ,   ,   ,2506,6431,3925
2031,   ,   ,   ,2575,6624,4049
2032,   ,   ,   ,3125,7035,3910
2033,   ,   ,   ,2705,6572,3867
2034,   ,   ,   ,3387,7382,3995
2035,   ,   ,   ,2530,6209,3679
2036,   ,   ,   ,2936,6682,3746
2037,   ,   ,   ,2474,6262,3788
2038,   ,   ,   ,2808,6620,3812
2039,   ,   ,   ,2267,6163,3896
2040,   ,   ,   ,2964,6472,3508
2041,   ,   ,   ,2237,6133,3896
2042,   ,   ,   ,2517,6367,3850
2043,   ,   ,   ,2511,6380,3869
2044,   ,   ,   ,2566,6495,3929
2045,   ,   ,   ,2654,6553,3899
2046,   ,   ,   ,2972,6835,3863
2047,   ,   ,   ,2789,6467,3678
