Pixel,Wavelength,Wavenumber,Raman Shift,Dark,Raw data #1,Dark Subtracted #1
34,533.81,18733.31,63.69,2434,3688,1254
35,533.86,18731.36,65.63,3603,4905,1302
36,533.92,18729.41,67.58,3116,4576,1460
37,533.98,18727.47,69.53,3289,5057,1768
38,534.03,18725.52,71.47,3055,5083,2028
39,534.09,18723.58,73.42,3061,5274,2213
40,534.14,18721.63,75.36,2878,5434,2556
41,534.2,18719.69,77.3,3139,5744,2605
42,534.25,18717.74,79.25,3335,6015,2680
43,534.31,18715.8,81.19,2623,5479,2856
44,534.36,18713.86,83.13,2767,6053,3286
45,534.42,18711.92,85.08,3044,6413,3369
46,534.47,18709.98,87.02,3346,7086,3740
47,534.53,18708.04,88.96,3782,7791,4009
48,534.59,18706.1,90.9,3362,7308,3946
49,534.64,18704.16,92.84,2615,7253,4638
50,534.7,18702.22,94.78,3043,7718,4675
51,534.75,18700.28,96.71,2551,7081,4530
52,534.81,18698.34,98.65,2575,6693,4118
53,534.86,18696.4,100.59,2776,6753,3977
54,534.92,18694.47,102.53,2755,6875,4120
55,534.97,18692.53,104.46,2860,7127,4267
56,535.03,18690.59,106.4,3621,8220,4599
57,535.08,18688.66,108.33,3216,8025,4809
58,535.14,18686.72,110.27,4065,8703,4638
59,535.19,18684.79,112.2,3951,8154,4203
60,535.25,18682.86,114.14,3813,7588,3775
61,535.31,18680.92,116.07,3154,7093,3939
62,535.36,18678.99,118,3426,7576,4150
63,535.42,18677.06,119.93,3457,7378,3921
64,535.47,18675.13,121.87,2774,6513,3739
65,535.53,18673.2,123.8,2905,6723,3818
66,535.58,18671.27,125.73,3235,6833,3598
67,535.64,18669.34,127.66,3099,6571,3472
68,535.69,18667.41,129.59,2871,5899,3028
69,535.75,18665.48,131.52,3179,6170,2991
70,535.8,18663.55,133.44,2787,5896,3109
71,535.86,18661.62,135.37,3037,5948,2911
72,535.91,18659.69,137.3,3144,5974,2830
73,535.97,18657.77,139.22,2464,5419,2955
74,536.03,18655.84,141.15,3621,6446,2825
75,536.08,18653.92,143.08,2714,5563,2849
76,536.14,18651.99,145,2725,5036,2311
77,536.19,18650.07,146.93,2979,5304,2325
78,536.25,18648.14,148.85,3105,5281,2176
79,536.3,18646.22,150.77,2482,4806,2324
80,536.36,18644.3,152.7,2504,4884,2380
81,536.41,18642.37,154.62,2640,5023,2383
82,536.47,18640.45,156.54,3174,5700,2526
83,536.52,18638.53,158.46,3920,6278,2358
84,536.58,18636.61,160.38,3239,5116,1877
85,536.63,18634.69,162.3,3242,5410,2168
86,536.69,18632.77,164.22,3442,5434,1992
87,536.74,18630.85,166.14,3189,5114,1925
88,536.8,18628.93,168.06,3095,5033,1938
89,536.85,18627.02,169.98,7052,9039,1987
90,536.91,18625.1,171.89,3234,5269,2035
91,536.97,18623.18,173.81,2916,4905,1989
92,537.02,18621.27,175.73,3718,5498,1780
93,537.08,18619.35,177.64,3287,4984,1697
94,537.13,18617.43,179.56,2758,4520,1762
95,537.19,18615.52,181.47,2888,4600,1712
96,537.24,18613.61,183.39,3281,4881,1600
97,537.3,18611.69,185.3,3063,4834,1771
98,537.35,18609.78,187.21,2468,4098,1630
99,537.41,18607.87,189.13,2689,4457,1768
100,537.46,18605.96,191.04,3160,4908,1748
101,537.52,18604.04,192.95,3370,5097,1727
102,537.57,18602.13,194.86,3283,4829,1546
103,537.63,18600.22,196.77,2795,4381,1586
104,537.68,18598.31,198.68,2884,4523,1639
105,537.74,18596.4,200.59,2647,4314,1667
106,537.79,18594.49,202.5,3527,5296,1769
107,537.85,18592.59,204.41,2763,4417,1654
108,537.9,18590.68,206.31,3306,5059,1753
109,537.96,18588.77,208.22,3338,4811,1473
110,538.01,18586.87,210.13,3050,4607,1557
111,538.07,18584.96,212.03,3336,4863,1527
112,538.12,18583.05,213.94,3038,4710,1672
113,538.18,18581.15,215.84,2925,4496,1571
114,538.24,18579.24,217.75,2918,4374,1456
115,538.29,18577.34,219.65,3391,4967,1576
116,538.35,18575.44,221.56,3035,4717,1682
117,538.4,18573.53,223.46,2958,4519,1561
118,538.46,18571.63,225.36,3237,4806,1569
119,538.51,18569.73,227.26,2943,4497,1554
120,538.57,18567.83,229.16,3097,4644,1547
121,538.62,18565.93,231.06,2895,4487,1592
122,538.68,18564.03,232.96,3091,4789,1698
123,538.73,18562.13,234.86,2417,4054,1637
124,538.79,18560.23,236.76,3443,4962,1519
125,538.84,18558.33,238.66,3729,5445,1716
126,538.9,18556.43,240.56,2862,4440,1578
127,538.95,18554.54,242.46,2943,4542,1599
128,539.01,18552.64,244.35,3066,4792,1726
129,539.06,18550.74,246.25,3745,5595,1850
130,539.12,18548.85,248.15,3260,4958,1698
131,539.17,18546.95,250.04,3867,5540,1673
132,539.23,18545.06,251.94,3716,5326,1610
133,539.28,18543.16,253.83,3415,5171,1756
134,539.34,18541.27,255.72,3381,4932,1551
135,539.39,18539.37,257.62,2875,4556,1681
136,539.45,18537.48,259.51,2980,4739,1759
137,539.5,18535.59,261.4,3291,5042,1751
138,539.56,18533.7,263.29,3015,4662,1647
139,539.61,18531.81,265.18,3381,5075,1694
140,539.67,18529.92,267.08,3494,5198,1704
141,539.72,18528.03,268.97,2278,4093,1815
142,539.78,18526.14,270.85,3173,4905,1732
143,539.83,18524.25,272.74,2696,4634,1938
144,539.89,18522.36,274.63,3105,4919,1814
145,539.94,18520.47,276.52,3397,5263,1866
146,540,18518.59,278.41,3067,4930,1863
147,540.05,18516.7,280.29,3390,5342,1952
148,540.11,18514.81,282.18,3305,5139,1834
149,540.16,18512.93,284.07,3423,5072,1649
150,540.22,18511.04,285.95,3046,4904,1858
151,540.27,18509.16,287.84,3416,5246,1830
152,540.33,18507.27,289.72,2991,4913,1922
153,540.38,18505.39,291.6,2698,4572,1874
154,540.44,18503.51,293.49,2943,4800,1857
155,540.49,18501.62,295.37,3009,4894,1885
156,540.55,18499.74,297.25,3142,5194,2052
157,540.6,18497.86,299.13,2758,4647,1889
158,540.66,18495.98,301.01,2651,4460,1809
159,540.71,18494.1,302.89,3016,4759,1743
160,540.77,18492.22,304.77,2942,4830,1888
161,540.82,18490.34,306.65,3187,4998,1811
162,540.88,18488.46,308.53,2619,4393,1774
163,540.93,18486.58,310.41,2742,4579,1837
164,540.99,18484.7,312.29,2764,4605,1841
165,541.04,18482.83,314.16,2754,4688,1934
166,541.1,18480.95,316.04,2599,4460,1861
167,541.15,18479.07,317.92,3345,5287,1942
168,541.21,18477.2,319.79,3156,5024,1868
169,541.26,18475.32,321.67,2299,4214,1915
170,541.32,18473.45,323.54,3248,5206,1958
171,541.37,18471.58,325.42,3038,5123,2085
172,541.43,18469.7,327.29,2962,4875,1913
173,541.48,18467.83,329.16,3285,5180,1895
174,541.54,18465.96,331.04,3134,5158,2024
175,541.59,18464.08,332.91,2826,4798,1972
176,541.65,18462.21,334.78,3133,4907,1774
177,541.7,18460.34,336.65,3158,5043,1885
178,541.76,18458.47,338.52,3065,4888,1823
179,541.81,18456.6,340.39,2844,4802,1958
180,541.87,18454.73,342.26,3521,5421,1900
181,541.92,18452.86,344.13,3741,5567,1826
182,541.98,18451,346,3349,5198,1849
183,542.03,18449.13,347.86,2968,4965,1997
184,542.09,18447.26,349.73,2874,4906,2032
185,542.14,18445.39,351.6,2795,4749,1954
186,542.2,18443.53,353.46,2795,4800,2005
187,542.25,18441.66,355.33,2618,4653,2035
188,542.31,18439.8,357.19,3171,5228,2057
189,542.36,18437.93,359.06,2412,4433,2021
190,542.41,18436.07,360.92,2923,4916,1993
191,542.47,18434.21,362.79,3022,5129,2107
192,542.52,18432.34,364.65,2693,4996,2303
193,542.58,18430.48,366.51,3018,5279,2261
194,542.63,18428.62,368.37,2780,4889,2109
195,542.69,18426.76,370.23,3456,5576,2120
196,542.74,18424.9,372.1,3242,5442,2200
197,542.8,18423.04,373.96,2724,4868,2144
198,542.85,18421.18,375.82,2856,4875,2019
199,542.91,18419.32,377.67,2513,4689,2176
200,542.96,18417.46,379.53,3132,5525,2393
201,543.02,18415.6,381.39,2944,5223,2279
202,543.07,18413.74,383.25,2529,4795,2266
203,543.13,18411.89,385.11,2947,5300,2353
204,543.18,18410.03,386.96,3143,5587,2444
205,543.24,18408.17,388.82,3171,5609,2438
206,543.29,18406.32,390.67,2658,4987,2329
207,543.35,18404.46,392.53,2949,5279,2330
208,543.4,18402.61,394.38,2940,5196,2256
209,543.46,18400.75,396.24,3006,5379,2373
210,543.51,18398.9,398.09,5110,7347,2237
211,543.57,18397.05,399.94,3231,5446,2215
212,543.62,18395.2,401.8,2877,5153,2276
213,543.67,18393.34,403.65,2937,5246,2309
214,543.73,18391.49,405.5,2832,5102,2270
215,543.78,18389.64,407.35,3402,5692,2290
216,543.84,18387.79,409.2,4750,7167,2417
217,543.89,18385.94,411.05,3358,5595,2237
218,543.95,18384.09,412.9,3614,5899,2285
219,544,18382.24,414.75,2788,4997,2209
220,544.06,18380.4,416.6,2746,5007,2261
221,544.11,18378.55,418.44,3011,5418,2407
222,544.17,18376.7,420.29,3238,5659,2421
223,544.22,18374.85,422.14,5402,7504,2102
224,544.28,18373.01,423.98,3195,5534,2339
225,544.33,18371.16,425.83,3168,5543,2375
226,544.39,18369.32,427.68,3354,5685,2331
227,544.44,18367.47,429.52,2843,5158,2315
228,544.5,18365.63,431.36,2938,5365,2427
229,544.55,18363.79,433.21,8304,10903,2599
230,544.6,18361.94,435.05,7814,10155,2341
231,544.66,18360.1,436.89,2872,5159,2287
232,544.71,18358.26,438.73,3177,5506,2329
233,544.77,18356.42,440.58,2789,5175,2386
234,544.82,18354.58,442.42,3589,5827,2238
235,544.88,18352.74,444.26,3191,5651,2460
236,544.93,18350.9,446.1,3310,5541,2231
237,544.99,18349.06,447.94,2582,5168,2586
238,545.04,18347.22,449.78,3056,5280,2224
239,545.1,18345.38,451.61,3372,5614,2242
240,545.15,18343.54,453.45,2863,5239,2376
241,545.21,18341.7,455.29,3283,5539,2256
242,545.26,18339.87,457.13,2397,4764,2367
243,545.31,18338.03,458.96,3061,5308,2247
244,545.37,18336.2,460.8,2629,4983,2354
245,545.42,18334.36,462.63,3267,5594,2327
246,545.48,18332.53,464.47,2863,5142,2279
247,545.53,18330.69,466.3,3449,5683,2234
248,545.59,18328.86,468.13,2923,5188,2265
249,545.64,18327.03,469.97,2406,4713,2307
250,545.7,18325.19,471.8,2537,4595,2058
251,545.75,18323.36,473.63,3208,5370,2162
252,545.81,18321.53,475.46,2957,5160,2203
253,545.86,18319.7,477.29,2380,4723,2343
254,545.92,18317.87,479.12,3843,5944,2101
255,545.97,18316.04,480.95,2395,4577,2182
256,546.02,18314.21,482.78,3534,5955,2421
257,546.08,18312.38,484.61,3239,5412,2173
258,546.13,18310.55,486.44,2497,4648,2151
259,546.19,18308.72,488.27,2961,5284,2323
260,546.24,18306.9,490.1,3473,5615,2142
261,546.3,18305.07,491.92,4163,6474,2311
262,546.35,18303.24,493.75,2835,5082,2247
263,546.41,18301.42,495.58,3316,5487,2171
264,546.46,18299.59,497.4,3769,5899,2130
265,546.51,18297.77,499.23,2552,4616,2064
266,546.57,18295.94,501.05,3296,5226,1930
267,546.62,18294.12,502.87,2864,4772,1908
268,546.68,18292.3,504.7,2709,4404,1695
269,546.73,18290.47,506.52,3119,4911,1792
270,546.79,18288.65,508.34,2823,4516,1693
271,546.84,18286.83,510.16,2928,4498,1570
272,546.9,18285.01,511.98,3422,5101,1679
273,546.95,18283.19,513.81,3228,4789,1561
274,547.01,18281.37,515.63,3269,4765,1496
275,547.06,18279.55,517.44,2565,4065,1500
276,547.11,18277.73,519.26,3698,5026,1328
277,547.17,18275.91,521.08,3102,4519,1417
278,547.22,18274.09,522.9,3272,4678,1406
279,547.28,18272.27,524.72,3588,4991,1403
280,547.33,18270.46,526.53,3004,4373,1369
281,547.39,18268.64,528.35,2887,4265,1378
282,547.44,18266.83,530.17,3207,4451,1244
283,547.49,18265.01,531.98,2819,4158,1339
284,547.55,18263.19,533.8,3289,4616,1327
285,547.6,18261.38,535.61,2633,3828,1195
286,547.66,18259.57,537.43,3001,4117,1116
287,547.71,18257.75,539.24,3035,4226,1191
288,547.77,18255.94,541.05,3151,4355,1204
289,547.82,18254.13,542.86,2855,4160,1305
290,547.88,18252.32,544.68,2946,4079,1133
291,547.93,18250.5,546.49,3566,4794,1228
292,547.98,18248.69,548.3,2567,3753,1186
293,548.04,18246.88,550.11,2925,4031,1106
294,548.09,18245.07,551.92,2704,3911,1207
295,548.15,18243.26,553.73,3006,4276,1270
296,548.2,18241.46,555.54,2548,3678,1130
297,548.26,18239.65,557.34,3324,4587,1263
298,548.31,18237.84,559.15,3168,4166,998
299,548.36,18236.03,560.96,2319,3459,1140
300,548.42,18234.23,562.77,2710,3839,1129
301,548.47,18232.42,564.57,4075,5397,1322
302,548.53,18230.61,566.38,3430,4467,1037
303,548.58,18228.81,568.18,2892,4043,1151
304,548.64,18227,569.99,3090,4350,1260
305,548.69,18225.2,571.79,2888,4071,1183
306,548.75,18223.4,573.6,2461,3684,1223
307,548.8,18221.59,575.4,2933,4145,1212
308,548.85,18219.79,577.2,3043,4176,1133
309,548.91,18217.99,579,2902,4202,1300
310,548.96,18216.19,580.8,3447,4720,1273
311,549.02,18214.39,582.61,3722,4966,1244
312,549.07,18212.59,584.41,2659,3745,1086
313,549.13,18210.79,586.21,3567,4723,1156
314,549.18,18208.99,588.01,2791,3905,1114
315,549.23,18207.19,589.8,3723,4991,1268
316,549.29,18205.39,591.6,2894,4184,1290
317,549.34,18203.59,593.4,3002,4295,1293
318,549.4,18201.79,595.2,2910,4404,1494
319,549.45,18200,597,3271,4677,1406
320,549.5,18198.2,598.79,3035,4546,1511
321,549.56,18196.4,600.59,2911,4374,1463
322,549.61,18194.61,602.38,3319,4690,1371
323,549.67,18192.81,604.18,3134,4676,1542
324,549.72,18191.02,605.97,3521,5148,1627
325,549.78,18189.23,607.77,3590,5067,1477
326,549.83,18187.43,609.56,3331,4915,1584
327,549.88,18185.64,611.35,3474,5126,1652
328,549.94,18183.85,613.15,3326,4906,1580
329,549.99,18182.06,614.94,3713,5284,1571
330,550.05,18180.26,616.73,3670,5128,1458
331,550.1,18178.47,618.52,3421,4835,1414
332,550.16,18176.68,620.31,3178,4624,1446
333,550.21,18174.89,622.1,3249,4834,1585
334,550.26,18173.1,623.89,3205,4720,1515
335,550.32,18171.32,625.68,2995,4405,1410
336,550.37,18169.53,627.47,3250,4523,1273
337,550.43,18167.74,629.25,4048,5359,1311
338,550.48,18165.95,631.04,2874,4015,1141
339,550.53,18164.17,632.83,3334,4421,1087
340,550.59,18162.38,634.61,3084,4283,1199
341,550.64,18160.59,636.4,3041,4260,1219
342,550.7,18158.81,638.18,3389,4542,1153
343,550.75,18157.02,639.97,2912,4047,1135
344,550.81,18155.24,641.75,3395,4625,1230
345,550.86,18153.46,643.54,2687,3782,1095
346,550.91,18151.67,645.32,3474,4742,1268
347,550.97,18149.89,647.1,3456,4428,972
348,551.02,18148.11,648.88,3000,4146,1146
349,551.08,18146.33,650.67,3100,4204,1104
350,551.13,18144.54,652.45,3139,4382,1243
351,551.18,18142.76,654.23,2981,4147,1166
352,551.24,18140.98,656.01,2845,3951,1106
353,551.29,18139.2,657.79,2823,4068,1245
354,551.35,18137.43,659.57,2894,4044,1150
355,551.4,18135.65,661.35,3497,4697,1200
356,551.45,18133.87,663.12,3053,4135,1082
357,551.51,18132.09,664.9,3038,4093,1055
358,551.56,18130.31,666.68,2955,4086,1131
359,551.62,18128.54,668.46,3025,4142,1117
360,551.67,18126.76,670.23,2949,3977,1028
361,551.72,18124.99,672.01,3225,4303,1078
362,551.78,18123.21,673.78,2383,3467,1084
363,551.83,18121.44,675.56,3014,4132,1118
364,551.89,18119.66,677.33,2717,3845,1128
365,551.94,18117.89,679.1,3052,3990,938
366,551.99,18116.12,680.88,3388,4568,1180
367,552.05,18114.34,682.65,3350,4467,1117
368,552.1,18112.57,684.42,2179,3339,1160
369,552.16,18110.8,686.19,2708,3720,1012
370,552.21,18109.03,687.96,2811,3756,945
371,552.26,18107.26,689.73,2637,3768,1131
372,552.32,18105.49,691.5,3138,4201,1063
373,552.37,18103.72,693.27,3076,4097,1021
374,552.43,18101.95,695.04,3261,4409,1148
375,552.48,18100.18,696.81,2919,4071,1152
376,552.53,18098.41,698.58,3074,4155,1081
377,552.59,18096.65,700.35,3016,4186,1170
378,552.64,18094.88,702.11,3175,4260,1085
379,552.7,18093.11,703.88,3930,5060,1130
380,552.75,18091.35,705.65,2655,3697,1042
381,552.8,18089.58,707.41,3581,4638,1057
382,552.86,18087.82,709.18,2803,3750,947
383,552.91,18086.05,710.94,3330,4390,1060
384,552.97,18084.29,712.7,3142,4162,1020
385,553.02,18082.52,714.47,3147,4485,1338
386,553.07,18080.76,716.23,2864,4096,1232
387,553.13,18079,717.99,2623,3781,1158
388,553.18,18077.24,719.76,3050,4197,1147
389,553.24,18075.48,721.52,2757,3812,1055
390,553.29,18073.71,723.28,3104,4206,1102
391,553.34,18071.95,725.04,2914,4004,1090
392,553.4,18070.19,726.8,3090,4160,1070
393,553.45,18068.44,728.56,2680,3726,1046
394,553.51,18066.68,730.32,2806,4022,1216
395,553.56,18064.92,732.07,3108,4340,1232
396,553.61,18063.16,733.83,3491,4543,1052
397,553.67,18061.4,735.59,3184,4174,990
398,553.72,18059.65,737.35,3478,4489,1011
399,553.77,18057.89,739.1,2940,3995,1055
400,553.83,18056.13,740.86,3297,4398,1101
401,553.88,18054.38,742.61,2796,3855,1059
402,553.94,18052.62,744.37,2915,3859,944
403,553.99,18050.87,746.12,2552,3770,1218
404,554.04,18049.11,747.88,2983,4142,1159
405,554.1,18047.36,749.63,3537,4583,1046
406,554.15,18045.61,751.38,3363,4525,1162
407,554.21,18043.86,753.14,3028,3993,965
408,554.26,18042.1,754.89,2703,3699,996
409,554.31,18040.35,756.64,3372,4529,1157
410,554.37,18038.6,758.39,3211,4513,1302
411,554.42,18036.85,760.14,4990,6164,1174
412,554.47,18035.1,761.89,5279,6459,1180
413,554.53,18033.35,763.64,2853,3929,1076
414,554.58,18031.6,765.39,2820,3846,1026
415,554.64,18029.86,767.14,3010,4111,1101
416,554.69,18028.11,768.89,2881,3957,1076
417,554.74,18026.36,770.63,3055,4320,1265
418,554.8,18024.61,772.38,2828,4036,1208
419,554.85,18022.87,774.13,2600,3813,1213
420,554.9,18021.12,775.87,2891,4382,1491
421,554.96,18019.38,777.62,2882,4262,1380
422,555.01,18017.63,779.36,2791,4198,1407
423,555.07,18015.89,781.11,3987,5241,1254
424,555.12,18014.14,782.85,3620,5039,1419
425,555.17,18012.4,784.59,2856,4090,1234
426,555.23,18010.66,786.34,3122,4383,1261
427,555.28,18008.91,788.08,3380,4649,1269
428,555.33,18007.17,789.82,3325,4765,1440
429,555.39,18005.43,791.56,2939,4351,1412
430,555.44,18003.69,793.3,3279,4581,1302
431,555.5,18001.95,795.04,2845,4252,1407
432,555.55,18000.21,796.78,2877,4354,1477
433,555.6,17998.47,798.52,2909,4457,1548
434,555.66,17996.73,800.26,2730,4062,1332
435,555.71,17994.99,802,3558,4858,1300
436,555.76,17993.26,803.74,2947,4374,1427
437,555.82,17991.52,805.47,2790,4113,1323
438,555.87,17989.78,807.21,2586,3962,1376
439,555.92,17988.04,808.95,3639,5133,1494
440,555.98,17986.31,810.68,2631,3991,1360
441,556.03,17984.57,812.42,2601,3986,1385
442,556.09,17982.84,814.15,3242,4746,1504
443,556.14,17981.1,815.89,3507,4893,1386
444,556.19,17979.37,817.62,2788,4104,1316
445,556.25,17977.64,819.36,2830,4316,1486
446,556.3,17975.9,821.09,2862,4219,1357
447,556.35,17974.17,822.82,3531,5013,1482
448,556.41,17972.44,824.55,3544,4902,1358
449,556.46,17970.71,826.28,3215,4568,1353
450,556.51,17968.98,828.02,3276,4753,1477
451,556.57,17967.25,829.75,3055,4484,1429
452,556.62,17965.52,831.48,2918,4341,1423
453,556.68,17963.79,833.21,2745,4091,1346
454,556.73,17962.06,834.93,2843,4147,1304
455,556.78,17960.33,836.66,2907,4146,1239
456,556.84,17958.6,838.39,2942,4263,1321
457,556.89,17956.87,840.12,2760,4155,1395
458,556.94,17955.15,841.84,2969,4414,1445
459,557,17953.42,843.57,2932,4241,1309
460,557.05,17951.7,845.3,3030,4428,1398
461,557.1,17949.97,847.02,3231,4375,1144
462,557.16,17948.24,848.75,3601,4928,1327
463,557.21,17946.52,850.47,2953,4304,1351
464,557.26,17944.8,852.2,2677,4002,1325
465,557.32,17943.07,853.92,2519,3644,1125
466,557.37,17941.35,855.64,3444,4678,1234
467,557.43,17939.63,857.37,2987,4217,1230
468,557.48,17937.91,859.09,2686,4094,1408
469,557.53,17936.18,860.81,2832,4234,1402
470,557.59,17934.46,862.53,3104,4373,1269
471,557.64,17932.74,864.25,2470,3771,1301
472,557.69,17931.02,865.97,2943,4374,1431
473,557.75,17929.3,867.69,2563,3825,1262
474,557.8,17927.58,869.41,3218,4596,1378
475,557.85,17925.87,871.13,2379,3651,1272
476,557.91,17924.15,872.85,2889,3970,1081
477,557.96,17922.43,874.56,2453,3659,1206
478,558.01,17920.71,876.28,3005,4289,1284
479,558.07,17919,878,3201,4396,1195
480,558.12,17917.28,879.71,3043,4153,1110
481,558.17,17915.56,881.43,2827,4020,1193
482,558.23,17913.85,883.14,2611,3866,1255
483,558.28,17912.13,884.86,2839,4047,1208
484,558.33,17910.42,886.57,2938,4084,1146
485,558.39,17908.71,888.29,3756,5122,1366
486,558.44,17906.99,890,2794,4005,1211
487,558.49,17905.28,891.71,2637,3919,1282
488,558.55,17903.57,893.42,3040,4273,1233
489,558.6,17901.86,895.14,2948,4094,1146
490,558.65,17900.15,896.85,2842,4116,1274
491,558.71,17898.44,898.56,3081,4224,1143
492,558.76,17896.73,900.27,3024,4376,1352
493,558.81,17895.02,901.98,3165,4425,1260
494,558.87,17893.31,903.69,3155,4375,1220
495,558.92,17891.6,905.39,2648,3966,1318
496,558.97,17889.89,907.1,2903,4063,1160
497,559.03,17888.18,908.81,3456,4635,1179
498,559.08,17886.47,910.52,2798,4000,1202
499,559.14,17884.77,912.22,3299,4544,1245
500,559.19,17883.06,913.93,3200,4470,1270
501,559.24,17881.36,915.64,2844,4029,1185
502,559.3,17879.65,917.34,3331,4575,1244
503,559.35,17877.95,919.05,3255,4369,1114
504,559.4,17876.24,920.75,2931,4243,1312
505,559.46,17874.54,922.45,2756,3887,1131
506,559.51,17872.83,924.16,2811,4064,1253
507,559.56,17871.13,925.86,2924,4038,1114
508,559.61,17869.43,927.56,2773,4229,1456
509,559.67,17867.73,929.27,2848,4095,1247
510,559.72,17866.03,930.97,3909,5027,1118
511,559.77,17864.33,932.67,3215,4445,1230
512,559.83,17862.62,934.37,2578,3802,1224
513,559.88,17860.93,936.07,3174,4515,1341
514,559.93,17859.23,937.77,2865,4185,1320
515,559.99,17857.53,939.47,3457,4676,1219
516,560.04,17855.83,941.16,2972,4221,1249
517,560.09,17854.13,942.86,3332,4639,1307
518,560.15,17852.43,944.56,3029,4261,1232
519,560.2,17850.74,946.26,2680,3961,1281
520,560.25,17849.04,947.95,5359,6580,1221
521,560.31,17847.34,949.65,2997,4296,1299
522,560.36,17845.65,951.34,2679,3951,1272
523,560.41,17843.95,953.04,2936,4179,1243
524,560.47,17842.26,954.73,2939,4201,1262
525,560.52,17840.56,956.43,3136,4383,1247
526,560.57,17838.87,958.12,2772,4128,1356
527,560.63,17837.18,959.81,3508,4767,1259
528,560.68,17835.49,961.51,2659,4056,1397
529,560.73,17833.79,963.2,3205,4522,1317
530,560.79,17832.1,964.89,3026,4082,1056
531,560.84,17830.41,966.58,2666,4008,1342
532,560.89,17828.72,968.27,3096,4372,1276
533,560.95,17827.03,969.96,3141,4555,1414
534,561,17825.34,971.65,3152,4455,1303
535,561.05,17823.65,973.34,3062,4405,1343
536,561.11,17821.96,975.03,2638,3926,1288
537,561.16,17820.27,976.72,3790,5240,1450
538,561.21,17818.59,978.41,5575,6767,1192
539,561.26,17816.9,980.09,3169,4611,1442
540,561.32,17815.21,981.78,2747,4026,1279
541,561.37,17813.53,983.47,3090,4397,1307
542,561.42,17811.84,985.15,3274,4566,1292
543,561.48,17810.16,986.84,2795,4060,1265
544,561.53,17808.47,988.52,2641,4048,1407
545,561.58,17806.79,990.21,2345,3796,1451
546,561.64,17805.1,991.89,2716,4238,1522
547,561.69,17803.42,993.57,3042,4187,1145
548,561.74,17801.74,995.26,2871,4266,1395
549,561.8,17800.05,996.94,2611,4112,1501
550,561.85,17798.37,998.62,2969,4532,1563
551,561.9,17796.69,1000.3,3178,4599,1421
552,561.96,17795.01,1001.98,3308,4617,1309
553,562.01,17793.33,1003.66,2655,4070,1415
554,562.06,17791.65,1005.34,2911,4190,1279
555,562.11,17789.97,1007.02,2760,4063,1303
556,562.17,17788.29,1008.7,3080,4479,1399
557,562.22,17786.61,1010.38,2652,4112,1460
558,562.27,17784.94,1012.06,2819,4389,1570
559,562.33,17783.26,1013.73,3237,4615,1378
560,562.38,17781.58,1015.41,3110,4599,1489
561,562.43,17779.9,1017.09,3047,4415,1368
562,562.49,17778.23,1018.76,3404,5016,1612
563,562.54,17776.55,1020.44,3359,4736,1377
564,562.59,17774.88,1022.11,3943,5340,1397
565,562.64,17773.2,1023.79,4052,5419,1367
566,562.7,17771.53,1025.46,2842,4387,1545
567,562.75,17769.86,1027.14,3036,4486,1450
568,562.8,17768.18,1028.81,3264,4720,1456
569,562.86,17766.51,1030.48,3626,5242,1616
570,562.91,17764.84,1032.16,2559,4115,1556
571,562.96,17763.17,1033.83,2783,4364,1581
572,563.02,17761.49,1035.5,3276,4702,1426
573,563.07,17759.82,1037.17,2692,4255,1563
574,563.12,17758.15,1038.84,3370,4888,1518
575,563.17,17756.48,1040.51,2794,4251,1457
576,563.23,17754.81,1042.18,2620,4178,1558
577,563.28,17753.15,1043.85,3286,4939,1653
578,563.33,17751.48,1045.52,3176,4777,1601
579,563.39,17749.81,1047.18,3461,5054,1593
580,563.44,17748.14,1048.85,2885,4448,1563
581,563.49,17746.48,1050.52,3659,5418,1759
582,563.55,17744.81,1052.18,3293,4996,1703
583,563.6,17743.14,1053.85,3522,5138,1616
584,563.65,17741.48,1055.51,3118,4721,1603
585,563.7,17739.81,1057.18,2834,4594,1760
586,563.76,17738.15,1058.84,3065,4640,1575
587,563.81,17736.48,1060.51,2946,4730,1784
588,563.86,17734.82,1062.17,2412,4142,1730
589,563.92,17733.16,1063.83,2726,4400,1674
590,563.97,17731.5,1065.5,2735,4376,1641
591,564.02,17729.83,1067.16,3067,4894,1827
592,564.07,17728.17,1068.82,2422,4106,1684
593,564.13,17726.51,1070.48,3057,4844,1787
594,564.18,17724.85,1072.14,2825,4665,1840
595,564.23,17723.19,1073.8,3187,4821,1634
596,564.29,17721.53,1075.46,3159,5064,1905
597,564.34,17719.87,1077.12,3884,5642,1758
598,564.39,17718.21,1078.78,2870,4682,1812
599,564.44,17716.55,1080.44,2201,3966,1765
600,564.5,17714.9,1082.1,3621,5396,1775
601,564.55,17713.24,1083.75,2406,4080,1674
602,564.6,17711.58,1085.41,3084,5047,1963
603,564.66,17709.93,1087.07,2945,4793,1848
604,564.71,17708.27,1088.72,2983,4910,1927
605,564.76,17706.61,1090.38,3470,5139,1669
606,564.81,17704.96,1092.03,2741,4519,1778
607,564.87,17703.31,1093.69,3343,5164,1821
608,564.92,17701.65,1095.34,3195,5056,1861
609,564.97,17700,1096.99,2864,4879,2015
610,565.02,17698.35,1098.65,3411,5288,1877
611,565.08,17696.69,1100.3,2518,4488,1970
612,565.13,17695.04,1101.95,2566,4556,1990
613,565.18,17693.39,1103.6,3058,5038,1980
614,565.24,17691.74,1105.25,3152,4981,1829
615,565.29,17690.09,1106.9,2832,4837,2005
616,565.34,17688.44,1108.55,2937,4832,1895
617,565.39,17686.79,1110.2,2497,4602,2105
618,565.45,17685.14,1111.85,3178,5294,2116
619,565.5,17683.49,1113.5,3707,5684,1977
620,565.55,17681.84,1115.15,2534,4485,1951
621,565.6,17680.19,1116.8,3236,5390,2154
622,565.66,17678.55,1118.45,2562,4635,2073
623,565.71,17676.9,1120.09,2675,4611,1936
624,565.76,17675.25,1121.74,2745,4635,1890
625,565.82,17673.61,1123.38,2741,4675,1934
626,565.87,17671.96,1125.03,3076,4996,1920
627,565.92,17670.32,1126.67,3001,5085,2084
628,565.97,17668.67,1128.32,2970,4964,1994
629,566.03,17667.03,1129.96,2920,4915,1995
630,566.08,17665.39,1131.61,3085,5271,2186
631,566.13,17663.74,1133.25,2311,4312,2001
632,566.18,17662.1,1134.89,2730,4754,2024
633,566.24,17660.46,1136.53,3215,5120,1905
634,566.29,17658.82,1138.17,3184,5098,1914
635,566.34,17657.18,1139.82,3012,4942,1930
636,566.39,17655.54,1141.46,2634,4832,2198
637,566.45,17653.9,1143.1,2611,4612,2001
638,566.5,17652.26,1144.74,3047,5043,1996
639,566.55,17650.62,1146.37,2989,5254,2265
640,566.61,17648.98,1148.01,2891,5010,2119
641,566.66,17647.34,1149.65,2233,4360,2127
642,566.71,17645.7,1151.29,2548,4561,2013
643,566.76,17644.07,1152.93,2747,4901,2154
644,566.82,17642.43,1154.56,3048,5208,2160
645,566.87,17640.79,1156.2,3207,5307,2100
646,566.92,17639.16,1157.84,3591,5926,2335
647,566.97,17637.52,1159.47,2756,4977,2221
648,567.03,17635.89,1161.11,3031,5262,2231
649,567.08,17634.25,1162.74,3099,5268,2169
650,567.13,17632.62,1164.37,2869,5268,2399
651,567.18,17630.99,1166.01,3107,5402,2295
652,567.24,17629.35,1167.64,3128,5270,2142
653,567.29,17627.72,1169.27,2710,4855,2145
654,567.34,17626.09,1170.9,2586,4982,2396
655,567.39,17624.46,1172.54,2325,4629,2304
656,567.45,17622.83,1174.17,2407,4671,2264
657,567.5,17621.2,1175.8,3388,5582,2194
658,567.55,17619.57,1177.43,2587,4659,2072
659,567.6,17617.94,1179.06,2431,4698,2267
660,567.66,17616.31,1180.69,3266,5602,2336
661,567.71,17614.68,1182.31,2677,4768,2091
662,567.76,17613.05,1183.94,3247,5562,2315
663,567.81,17611.42,1185.57,2669,4991,2322
664,567.87,17609.79,1187.2,3009,5243,2234
665,567.92,17608.17,1188.82,2943,5215,2272
666,567.97,17606.54,1190.45,2832,5191,2359
667,568.02,17604.92,1192.08,2976,5276,2300
668,568.08,17603.29,1193.7,2460,4935,2475
669,568.13,17601.67,1195.33,2433,4868,2435
670,568.18,17600.04,1196.95,2758,5189,2431
671,568.23,17598.42,1198.58,2768,5081,2313
672,568.29,17596.79,1200.2,2598,4975,2377
673,568.34,17595.17,1201.82,2836,5439,2603
674,568.39,17593.55,1203.44,3321,5758,2437
675,568.44,17591.93,1205.07,3252,5698,2446
676,568.5,17590.3,1206.69,3259,5743,2484
677,568.55,17588.68,1208.31,2892,5402,2510
678,568.6,17587.06,1209.93,2714,5189,2475
679,568.65,17585.44,1211.55,2606,5031,2425
680,568.7,17583.82,1213.17,2883,5207,2324
681,568.76,17582.2,1214.79,3430,5935,2505
682,568.81,17580.58,1216.41,2930,5412,2482
683,568.86,17578.97,1218.03,2618,5112,2494
684,568.91,17577.35,1219.64,3891,6217,2326
685,568.97,17575.73,1221.26,2809,5487,2678
686,569.02,17574.11,1222.88,2449,4966,2517
687,569.07,17572.5,1224.49,2671,5297,2626
688,569.12,17570.88,1226.11,2673,5314,2641
689,569.18,17569.27,1227.73,2912,5657,2745
690,569.23,17567.65,1229.34,2924,5496,2572
691,569.28,17566.04,1230.96,2922,5594,2672
692,569.33,17564.42,1232.57,2482,5218,2736
693,569.38,17562.81,1234.18,2692,5520,2828
694,569.44,17561.2,1235.8,3237,5655,2418
695,569.49,17559.58,1237.41,2781,5523,2742
696,569.54,17557.97,1239.02,2807,5687,2880
697,569.59,17556.36,1240.63,2523,5314,2791
698,569.65,17554.75,1242.24,2809,5551,2742
699,569.7,17553.14,1243.85,3332,6112,2780
700,569.75,17551.53,1245.47,2939,5777,2838
701,569.8,17549.92,1247.08,2616,5511,2895
702,569.86,17548.31,1248.68,3051,5763,2712
703,569.91,17546.7,1250.29,3855,6686,2831
704,569.96,17545.09,1251.9,3448,6327,2879
705,570.01,17543.48,1253.51,3153,6102,2949
706,570.06,17541.88,1255.12,2717,5700,2983
707,570.12,17540.27,1256.72,2635,5625,2990
708,570.17,17538.66,1258.33,3948,7189,3241
709,570.22,17537.06,1259.94,2797,5684,2887
710,570.27,17535.45,1261.54,3273,6433,3160
711,570.33,17533.84,1263.15,3009,5873,2864
712,570.38,17532.24,1264.75,3418,6660,3242
713,570.43,17530.64,1266.36,2325,5440,3115
714,570.48,17529.03,1267.96,4746,7744,2998
715,570.53,17527.43,1269.56,3382,6605,3223
716,570.59,17525.83,1271.17,2906,6505,3599
717,570.64,17524.22,1272.77,2881,6350,3469
718,570.69,17522.62,1274.37,2525,6046,3521
719,570.74,17521.02,1275.97,3065,6604,3539
720,570.8,17519.42,1277.57,3104,6701,3597
721,570.85,17517.82,1279.17,2708,6318,3610
722,570.9,17516.22,1280.77,3340,7210,3870
723,570.95,17514.62,1282.37,3294,7052,3758
724,571,17513.02,1283.97,3143,7092,3949
725,571.06,17511.42,1285.57,2852,6622,3770
726,571.11,17509.82,1287.17,2444,6521,4077
727,571.16,17508.23,1288.77,2687,6730,4043
728,571.21,17506.63,1290.36,3685,8050,4365
729,571.26,17505.03,1291.96,2761,7002,4241
730,571.32,17503.44,1293.56,2749,7400,4651
731,571.37,17501.84,1295.15,3273,7603,4330
732,571.42,17500.24,1296.75,2975,7721,4746
733,571.47,17498.65,1298.34,3232,8104,4872
734,571.52,17497.06,1299.94,2254,7151,4897
735,571.58,17495.46,1301.53,2907,8024,5117
736,571.63,17493.87,1303.12,3023,8243,5220
737,571.68,17492.27,1304.72,2642,8228,5586
738,571.73,17490.68,1306.31,3446,9092,5646
739,571.79,17489.09,1307.9,2655,8445,5790
740,571.84,17487.5,1309.49,2383,8462,6079
741,571.89,17485.91,1311.09,2459,8637,6178
742,571.94,17484.32,1312.68,2444,9199,6755
743,571.99,17482.73,1314.27,3162,10052,6890
744,572.05,17481.14,1315.86,3341,10524,7183
745,572.1,17479.55,1317.45,2465,10189,7724
746,572.15,17477.96,1319.03,3164,11046,7882
747,572.2,17476.37,1320.62,2786,10988,8202
748,572.25,17474.78,1322.21,2883,11542,8659
749,572.31,17473.19,1323.8,2542,11699,9157
750,572.36,17471.61,1325.38,2739,12090,9351
751,572.41,17470.02,1326.97,2583,12370,9787
752,572.46,17468.44,1328.56,3150,13307,10157
753,572.51,17466.85,1330.14,2951,13785,10834
754,572.57,17465.26,1331.73,3401,14401,11000
755,572.62,17463.68,1333.31,2507,14187,11680
756,572.67,17462.1,1334.9,3001,15219,12218
757,572.72,17460.51,1336.48,2503,15146,12643
758,572.77,17458.93,1338.06,2935,16313,13378
759,572.82,17457.35,1339.65,2475,15828,13353
760,572.88,17455.76,1341.23,2652,16206,13554
761,572.93,17454.18,1342.81,2636,16567,13931
762,572.98,17452.6,1344.39,3022,17302,14280
763,573.03,17451.02,1345.97,2583,17045,14462
764,573.08,17449.44,1347.55,2570,17176,14606
765,573.14,17447.86,1349.13,2818,17308,14490
766,573.19,17446.28,1350.71,2941,16796,13855
767,573.24,17444.7,1352.29,5351,19215,13864
768,573.29,17443.12,1353.87,2757,16396,13639
769,573.34,17441.54,1355.45,3131,16615,13484
770,573.4,17439.97,1357.03,2872,16105,13233
771,573.45,17438.39,1358.6,2661,15562,12901
772,573.5,17436.81,1360.18,2993,15166,12173
773,573.55,17435.23,1361.76,3066,14487,11421
774,573.6,17433.66,1363.33,3104,14139,11035
775,573.65,17432.08,1364.91,3042,13566,10524
776,573.71,17430.51,1366.48,3126,13198,10072
777,573.76,17428.93,1368.06,2694,12373,9679
778,573.81,17427.36,1369.63,2646,12019,9373
779,573.86,17425.79,1371.21,4105,12995,8890
780,573.91,17424.21,1372.78,2566,10889,8323
781,573.97,17422.64,1374.35,2794,11091,8297
782,574.02,17421.07,1375.92,2444,10230,7786
783,574.07,17419.5,1377.5,2318,9580,7262
784,574.12,17417.93,1379.07,2552,9816,7264
785,574.17,17416.35,1380.64,2706,9342,6636
786,574.22,17414.78,1382.21,2843,9285,6442
787,574.28,17413.21,1383.78,2951,9129,6178
788,574.33,17411.65,1385.35,2399,8398,5999
789,574.38,17410.08,1386.92,2805,8493,5688
790,574.43,17408.51,1388.48,3527,8959,5432
791,574.48,17406.94,1390.05,2949,8373,5424
792,574.54,17405.37,1391.62,2740,7784,5044
793,574.59,17403.8,1393.19,2590,7708,5118
794,574.64,17402.24,1394.75,2779,7758,4979
795,574.69,17400.67,1396.32,2894,7599,4705
796,574.74,17399.11,1397.89,2766,7395,4629
797,574.79,17397.54,1399.45,3514,8073,4559
798,574.85,17395.98,1401.02,2521,6999,4478
799,574.9,17394.41,1402.58,3773,8216,4443
800,574.95,17392.85,1404.14,2723,6953,4230
801,575,17391.28,1405.71,3070,7401,4331
802,575.05,17389.72,1407.27,2478,6575,4097
803,575.1,17388.16,1408.83,2235,6276,4041
804,575.16,17386.6,1410.4,2535,6633,4098
805,575.21,17385.04,1411.96,2913,6946,4033
806,575.26,17383.47,1413.52,2687,6720,4033
807,575.31,17381.91,1415.08,2748,6542,3794
808,575.36,17380.35,1416.64,3053,6871,3818
809,575.41,17378.79,1418.2,2678,6273,3595
810,575.47,17377.23,1419.76,2867,6628,3761
811,575.52,17375.67,1421.32,2732,6264,3532
812,575.57,17374.12,1422.88,2503,6096,3593
813,575.62,17372.56,1424.43,2535,6334,3799
814,575.67,17371,1425.99,3502,7019,3517
815,575.72,17369.44,1427.55,2937,6450,3513
816,575.78,17367.89,1429.11,2550,6254,3704
817,575.83,17366.33,1430.66,2637,6157,3520
818,575.88,17364.78,1432.22,2748,6383,3635
819,575.93,17363.22,1433.77,2774,6596,3822
820,575.98,17361.67,1435.33,2682,6191,3509
821,576.03,17360.11,1436.88,2967,6287,3320
822,576.08,17358.56,1438.44,3276,6743,3467
823,576.14,17357,1439.99,3526,6998,3472
824,576.19,17355.45,1441.54,2866,6501,3635
825,576.24,17353.9,1443.09,3009,6416,3407
826,576.29,17352.35,1444.65,2935,6418,3483
827,576.34,17350.79,1446.2,2887,6360,3473
828,576.39,17349.24,1447.75,2495,6016,3521
829,576.45,17347.69,1449.3,2909,6093,3184
830,576.5,17346.14,1450.85,2909,6262,3353
831,576.55,17344.59,1452.4,2589,6002,3413
832,576.6,17343.04,1453.95,2905,6278,3373
833,576.65,17341.5,1455.5,2893,6194,3301
834,576.7,17339.95,1457.05,2215,5743,3528
835,576.75,17338.4,1458.59,2951,6335,3384
836,576.81,17336.85,1460.14,3283,6784,3501
837,576.86,17335.3,1461.69,2656,6236,3580
838,576.91,17333.76,1463.23,3076,6412,3336
839,576.96,17332.21,1464.78,2985,6200,3215
840,577.01,17330.67,1466.33,2661,6131,3470
841,577.06,17329.12,1467.87,2670,6124,3454
842,577.11,17327.58,1469.42,2479,6143,3664
843,577.17,17326.03,1470.96,3159,6858,3699
844,577.22,17324.49,1472.5,3143,6716,3573
845,577.27,17322.94,1474.05,2506,5772,3266
846,577.32,17321.4,1475.59,3111,6489,3378
847,577.37,17319.86,1477.13,2714,6125,3411
848,577.42,17318.32,1478.68,2599,6055,3456
849,577.47,17316.78,1480.22,4569,7901,3332
850,577.53,17315.23,1481.76,2601,6042,3441
851,577.58,17313.69,1483.3,2315,5915,3600
852,577.63,17312.15,1484.84,2751,6213,3462
853,577.68,17310.61,1486.38,2837,6430,3593
854,577.73,17309.07,1487.92,2523,6223,3700
855,577.78,17307.54,1489.46,3209,6522,3313
856,577.83,17306,1491,2658,6151,3493
857,577.89,17304.46,1492.53,2742,6202,3460
858,577.94,17302.92,1494.07,2976,6652,3676
859,577.99,17301.38,1495.61,2300,5883,3583
860,578.04,17299.85,1497.14,3234,7006,3772
861,578.09,17298.31,1498.68,2522,6218,3696
862,578.14,17296.78,1500.22,3495,7185,3690
863,578.19,17295.24,1501.75,3973,7582,3609
864,578.25,17293.71,1503.29,2680,6343,3663
865,578.3,17292.17,1504.82,2742,6513,3771
866,578.35,17290.64,1506.35,3303,6917,3614
867,578.4,17289.1,1507.89,2489,6107,3618
868,578.45,17287.57,1509.42,3370,7219,3849
869,578.5,17286.04,1510.95,2672,6625,3953
870,578.55,17284.51,1512.49,2409,6153,3744
871,578.6,17282.98,1514.02,3187,6976,3789
872,578.66,17281.44,1515.55,2785,6664,3879
873,578.71,17279.91,1517.08,2851,6579,3728
874,578.76,17278.38,1518.61,2561,6563,4002
875,578.81,17276.85,1520.14,3409,7391,3982
876,578.86,17275.32,1521.67,2278,6283,4005
877,578.91,17273.8,1523.2,2724,6708,3984
878,578.96,17272.27,1524.73,3024,6964,3940
879,579.01,17270.74,1526.25,3027,7133,4106
880,579.07,17269.21,1527.78,2975,7340,4365
881,579.12,17267.68,1529.31,2586,7102,4516
882,579.17,17266.16,1530.83,2531,7203,4672
883,579.22,17264.63,1532.36,3371,7870,4499
884,579.27,17263.11,1533.89,2991,7679,4688
885,579.32,17261.58,1535.41,2699,7492,4793
886,579.37,17260.06,1536.94,2760,7633,4873
887,579.42,17258.53,1538.46,2624,7341,4717
888,579.47,17257.01,1539.98,2762,7826,5064
889,579.53,17255.48,1541.51,3091,8547,5456
890,579.58,17253.96,1543.03,2721,8229,5508
891,579.63,17252.44,1544.55,2983,8758,5775
892,579.68,17250.92,1546.08,3247,9167,5920
893,579.73,17249.39,1547.6,2557,8703,6146
894,579.78,17247.87,1549.12,3131,9750,6619
895,579.83,17246.35,1550.64,2825,9794,6969
896,579.88,17244.83,1552.16,2707,10502,7795
897,579.93,17243.31,1553.68,2936,11139,8203
898,579.99,17241.79,1555.2,2993,11847,8854
899,580.04,17240.27,1556.72,2200,11401,9201
900,580.09,17238.76,1558.24,2459,11645,9186
901,580.14,17237.24,1559.76,3179,12896,9717
902,580.19,17235.72,1561.27,2708,12449,9741
903,580.24,17234.2,1562.79,2979,13402,10423
904,580.29,17232.69,1564.31,2886,13621,10735
905,580.34,17231.17,1565.82,2377,13832,11455
906,580.39,17229.65,1567.34,2266,14239,11973
907,580.45,17228.14,1568.85,2612,15382,12770
908,580.5,17226.62,1570.37,2656,15944,13288
909,580.55,17225.11,1571.88,2814,16460,13646
910,580.6,17223.59,1573.4,3883,17983,14100
911,580.65,17222.08,1574.91,2713,17104,14391
912,580.7,17220.57,1576.42,2465,17496,15031
913,580.75,17219.06,1577.94,2597,17808,15211
914,580.8,17217.54,1579.45,2594,17834,15240
915,580.85,17216.03,1580.96,2959,18117,15158
916,580.9,17214.52,1582.47,2665,17989,15324
917,580.96,17213.01,1583.98,2711,18367,15656
918,581.01,17211.5,1585.49,5130,20044,14914
919,581.06,17209.99,1587,3113,17800,14687
920,581.11,17208.48,1588.51,2730,16698,13968
921,581.16,17206.97,1590.02,2635,16644,14009
922,581.21,17205.46,1591.53,2525,16098,13573
923,581.26,17203.95,1593.04,3009,15846,12837
924,581.31,17202.44,1594.55,2615,15009,12394
925,581.36,17200.94,1596.06,3015,15302,12287
926,581.41,17199.43,1597.56,3142,14714,11572
927,581.47,17197.92,1599.07,2867,14255,11388
928,581.52,17196.42,1600.57,2224,12984,10760
929,581.57,17194.91,1602.08,2711,13248,10537
930,581.62,17193.41,1603.59,2563,12961,10398
931,581.67,17191.9,1605.09,3170,13088,9918
932,581.72,17190.4,1606.59,2727,12671,9944
933,581.77,17188.89,1608.1,2623,12214,9591
934,581.82,17187.39,1609.6,2954,12497,9543
935,581.87,17185.89,1611.1,2929,12346,9417
936,581.92,17184.39,1612.61,2554,11704,9150
937,581.97,17182.88,1614.11,2862,12054,9192
938,582.03,17181.38,1615.61,2638,11803,9165
939,582.08,17179.88,1617.11,2439,11323,8884
940,582.13,17178.38,1618.61,2631,11477,8846
941,582.18,17176.88,1620.11,2747,11246,8499
942,582.23,17175.38,1621.61,3019,11282,8263
943,582.28,17173.88,1623.11,2614,10415,7801
944,582.33,17172.38,1624.61,2952,10259,7307
945,582.38,17170.88,1626.11,2930,10138,7208
946,582.43,17169.39,1627.61,2879,9655,6776
947,582.48,17167.89,1629.1,2532,8861,6329
948,582.53,17166.39,1630.6,2809,8993,6184
949,582.58,17164.89,1632.1,4015,9698,5683
950,582.64,17163.4,1633.59,3030,8353,5323
951,582.69,17161.9,1635.09,3327,8457,5130
952,582.74,17160.41,1636.59,2593,7397,4804
953,582.79,17158.91,1638.08,2700,7270,4570
954,582.84,17157.42,1639.57,3539,7966,4427
955,582.89,17155.92,1641.07,3323,7836,4513
956,582.94,17154.43,1642.56,3067,7087,4020
957,582.99,17152.94,1644.06,3163,7209,4046
958,583.04,17151.44,1645.55,2625,6383,3758
959,583.09,17149.95,1647.04,2858,6476,3618
960,583.14,17148.46,1648.53,2321,5932,3611
961,583.19,17146.97,1650.02,2526,5845,3319
962,583.24,17145.48,1651.51,2233,5670,3437
963,583.29,17143.99,1653,2469,5667,3198
964,583.35,17142.5,1654.49,2928,6071,3143
965,583.4,17141.01,1655.98,3014,6058,3044
966,583.45,17139.52,1657.47,2781,5812,3031
967,583.5,17138.03,1658.96,2916,5898,2982
968,583.55,17136.54,1660.45,2622,5376,2754
969,583.6,17135.05,1661.94,2998,5820,2822
970,583.65,17133.57,1663.43,2901,5783,2882
971,583.7,17132.08,1664.91,2874,5747,2873
972,583.75,17130.59,1666.4,2526,5142,2616
973,583.8,17129.11,1667.88,3084,5683,2599
974,583.85,17127.62,1669.37,2636,5406,2770
975,583.9,17126.14,1670.86,2807,5401,2594
976,583.95,17124.65,1672.34,2932,5548,2616
977,584,17123.17,1673.82,2685,5175,2490
978,584.05,17121.68,1675.31,2610,4965,2355
979,584.11,17120.2,1676.79,2597,5346,2749
980,584.16,17118.72,1678.27,2753,5313,2560
981,584.21,17117.24,1679.76,2899,5420,2521
982,584.26,17115.75,1681.24,2899,5391,2492
983,584.31,17114.27,1682.72,2937,5288,2351
984,584.36,17112.79,1684.2,2632,5105,2473
985,584.41,17111.31,1685.68,2759,5271,2512
986,584.46,17109.83,1687.16,2418,4836,2418
987,584.51,17108.35,1688.64,2705,5096,2391
988,584.56,17106.87,1690.12,2880,5140,2260
989,584.61,17105.39,1691.6,2934,5341,2407
990,584.66,17103.91,1693.08,2643,4946,2303
991,584.71,17102.43,1694.56,3410,5716,2306
992,584.76,17100.96,1696.04,3252,5553,2301
993,584.81,17099.48,1697.51,3230,5528,2298
994,584.86,17098,1698.99,3621,5873,2252
995,584.91,17096.53,1700.47,2745,4949,2204
996,584.96,17095.05,1701.94,3085,5405,2320
997,585.02,17093.58,1703.42,2575,4846,2271
998,585.07,17092.1,1704.89,2723,4947,2224
999,585.12,17090.63,1706.37,2784,4883,2099
1000,585.17,17089.15,1707.84,2787,5072,2285
1001,585.22,17087.68,1709.31,2703,4794,2091
1002,585.27,17086.2,1710.79,2866,5093,2227
1003,585.32,17084.73,1712.26,2866,5051,2185
1004,585.37,17083.26,1713.73,2518,4762,2244
1005,585.42,17081.79,1715.2,2558,4832,2274
1006,585.47,17080.32,1716.68,2467,4568,2101
1007,585.52,17078.85,1718.15,2998,5118,2120
1008,585.57,17077.37,1719.62,3281,5333,2052
1009,585.62,17075.9,1721.09,2423,4648,2225
1010,585.67,17074.43,1722.56,2399,4475,2076
1011,585.72,17072.97,1724.03,2512,4626,2114
1012,585.77,17071.5,1725.5,2792,4866,2074
1013,585.82,17070.03,1726.96,2386,4455,2069
1014,585.87,17068.56,1728.43,2736,4991,2255
1015,585.92,17067.09,1729.9,2548,4677,2129
1016,585.97,17065.63,1731.37,2964,5234,2270
1017,586.02,17064.16,1732.83,3039,5142,2103
1018,586.07,17062.69,1734.3,3195,5271,2076
1019,586.12,17061.23,1735.77,2996,5173,2177
1020,586.17,17059.76,1737.23,3172,5255,2083
1021,586.23,17058.3,1738.7,2717,4647,1930
1022,586.28,17056.83,1740.16,2637,4703,2066
1023,586.33,17055.37,1741.62,2645,4731,2086
1024,586.38,17053.9,1743.09,2931,4985,2054
1025,586.43,17052.44,1744.55,3486,5533,2047
1026,586.48,17050.98,1746.01,2390,4385,1995
1027,586.53,17049.52,1747.48,2574,4551,1977
1028,586.58,17048.05,1748.94,2464,4633,2169
1029,586.63,17046.59,1750.4,2823,4922,2099
1030,586.68,17045.13,1751.86,2230,4432,2202
1031,586.73,17043.67,1753.32,3192,5158,1966
1032,586.78,17042.21,1754.78,2619,4737,2118
1033,586.83,17040.75,1756.24,2721,4868,2147
1034,586.88,17039.29,1757.7,3039,5165,2126
1035,586.93,17037.83,1759.16,2972,5114,2142
1036,586.98,17036.37,1760.62,3302,5558,2256
1037,587.03,17034.92,1762.08,2322,4369,2047
1038,587.08,17033.46,1763.53,2204,4254,2050
1039,587.13,17032,1764.99,2619,4750,2131
1040,587.18,17030.55,1766.45,2993,4938,1945
1041,587.23,17029.09,1767.9,3270,5342,2072
1042,587.28,17027.63,1769.36,2634,4735,2101
1043,587.33,17026.18,1770.81,2491,4786,2295
1044,587.38,17024.72,1772.27,3074,5119,2045
1045,587.43,17023.27,1773.72,3028,4970,1942
1046,587.48,17021.82,1775.18,3130,5226,2096
1047,587.53,17020.36,1776.63,2611,4738,2127
1048,587.58,17018.91,1778.08,2147,4193,2046
1049,587.63,17017.46,1779.54,2467,4450,1983
1050,587.68,17016,1780.99,2306,4436,2130
1051,587.73,17014.55,1782.44,2603,4861,2258
1052,587.78,17013.1,1783.89,3195,5140,1945
1053,587.83,17011.65,1785.34,2684,4749,2065
1054,587.88,17010.2,1786.79,2790,4818,2028
1055,587.93,17008.75,1788.24,3371,5537,2166
1056,587.98,17007.3,1789.69,2894,4942,2048
1057,588.03,17005.85,1791.14,2763,4751,1988
1058,588.08,17004.4,1792.59,2257,4499,2242
1059,588.13,17002.95,1794.04,2381,4358,1977
1060,588.18,17001.5,1795.49,3399,5350,1951
1061,588.23,17000.06,1796.94,3407,5409,2002
1062,588.28,16998.61,1798.38,2764,4844,2080
1063,588.33,16997.16,1799.83,3160,5334,2174
1064,588.38,16995.72,1801.28,2797,4967,2170
1065,588.43,16994.27,1802.72,2558,4665,2107
1066,588.48,16992.83,1804.17,2700,4726,2026
1067,588.53,16991.38,1805.61,2757,4732,1975
1068,588.58,16989.94,1807.06,2368,4400,2032
1069,588.63,16988.49,1808.5,2570,4752,2182
1070,588.68,16987.05,1809.94,2853,4929,2076
1071,588.73,16985.61,1811.39,2889,5079,2190
1072,588.78,16984.16,1812.83,3091,5103,2012
1073,588.83,16982.72,1814.27,2641,4691,2050
1074,588.88,16981.28,1815.71,2661,4619,1958
1075,588.93,16979.84,1817.16,3613,5796,2183
1076,588.98,16978.4,1818.6,3798,5783,1985
1077,589.03,16976.96,1820.04,3379,5423,2044
1078,589.08,16975.52,1821.48,2775,4853,2078
1079,589.13,16974.08,1822.92,2711,4869,2158
1080,589.18,16972.64,1824.36,3105,5262,2157
1081,589.23,16971.2,1825.79,2950,5001,2051
1082,589.28,16969.76,1827.23,2975,5117,2142
1083,589.33,16968.32,1828.67,2835,4906,2071
1084,589.38,16966.88,1830.11,2732,4863,2131
1085,589.43,16965.45,1831.55,2338,4350,2012
1086,589.48,16964.01,1832.98,2736,4804,2068
1087,589.53,16962.57,1834.42,2912,5031,2119
1088,589.58,16961.14,1835.85,2570,4706,2136
1089,589.63,16959.7,1837.29,3244,5403,2159
1090,589.68,16958.27,1838.72,2710,4653,1943
1091,589.73,16956.83,1840.16,2305,4476,2171
1092,589.78,16955.4,1841.59,2778,4907,2129
1093,589.83,16953.97,1843.03,2890,5097,2207
1094,589.88,16952.53,1844.46,2585,4832,2247
1095,589.93,16951.1,1845.89,3038,5051,2013
1096,589.98,16949.67,1847.33,2518,4705,2187
1097,590.03,16948.24,1848.76,2635,4740,2105
1098,590.08,16946.8,1850.19,2538,4734,2196
1099,590.13,16945.37,1851.62,2605,4806,2201
1100,590.18,16943.94,1853.05,3029,4816,1787
1101,590.23,16942.51,1854.48,2450,4528,2078
1102,590.28,16941.08,1855.91,2483,4462,1979
1103,590.33,16939.65,1857.34,3292,5410,2118
1104,590.38,16938.22,1858.77,2890,5240,2350
1105,590.43,16936.8,1860.2,3129,5216,2087
1106,590.48,16935.37,1861.63,2593,4608,2015
1107,590.53,16933.94,1863.05,2899,4976,2077
1108,590.58,16932.51,1864.48,3206,5436,2230
1109,590.63,16931.09,1865.91,3215,5296,2081
1110,590.68,16929.66,1867.33,3257,5425,2168
1111,590.73,16928.23,1868.76,2769,4853,2084
1112,590.78,16926.81,1870.18,2977,5080,2103
1113,590.83,16925.38,1871.61,2914,4933,2019
1114,590.88,16923.96,1873.03,2768,4820,2052
1115,590.93,16922.53,1874.46,4539,6710,2171
1116,590.98,16921.11,1875.88,2914,5014,2100
1117,591.03,16919.69,1877.31,2730,4906,2176
1118,591.08,16918.26,1878.73,3094,5296,2202
1119,591.13,16916.84,1880.15,3315,5388,2073
1120,591.18,16915.42,1881.57,3473,5457,1984
1121,591.23,16914,1883,2449,4702,2253
1122,591.28,16912.58,1884.42,2869,4919,2050
1123,591.33,16911.16,1885.84,3203,5214,2011
1124,591.38,16909.74,1887.26,3147,5216,2069
1125,591.42,16908.32,1888.68,2404,4515,2111
1126,591.47,16906.9,1890.1,2898,4988,2090
1127,591.52,16905.48,1891.52,2787,4960,2173
1128,591.57,16904.06,1892.93,2677,4787,2110
1129,591.62,16902.64,1894.35,2406,4464,2058
1130,591.67,16901.22,1895.77,2778,4892,2114
1131,591.72,16899.8,1897.19,3292,5387,2095
1132,591.77,16898.39,1898.6,2732,5073,2341
1133,591.82,16896.97,1900.02,2692,4842,2150
1134,591.87,16895.56,1901.44,2402,4620,2218
1135,591.92,16894.14,1902.85,2654,4699,2045
1136,591.97,16892.72,1904.27,2805,5009,2204
1137,592.02,16891.31,1905.68,2707,4821,2114
1138,592.07,16889.9,1907.1,2878,5046,2168
1139,592.12,16888.48,1908.51,2878,4918,2040
1140,592.17,16887.07,1909.92,2496,4556,2060
1141,592.22,16885.65,1911.34,2933,5107,2174
1142,592.27,16884.24,1912.75,2677,4824,2147
1143,592.32,16882.83,1914.16,2647,4666,2019
1144,592.37,16881.42,1915.57,2439,4554,2115
1145,592.42,16880.01,1916.99,3350,5462,2112
1146,592.47,16878.6,1918.4,2768,4826,2058
1147,592.52,16877.18,1919.81,3620,5805,2185
1148,592.57,16875.77,1921.22,2428,4682,2254
1149,592.61,16874.37,1922.63,2950,5105,2155
1150,592.66,16872.96,1924.04,2553,4666,2113
1151,592.71,16871.55,1925.45,3027,5007,1980
1152,592.76,16870.14,1926.85,3348,5572,2224
1153,592.81,16868.73,1928.26,2714,4839,2125
1154,592.86,16867.32,1929.67,2818,5043,2225
1155,592.91,16865.92,1931.08,3118,5326,2208
1156,592.96,16864.51,1932.48,2436,4590,2154
1157,593.01,16863.1,1933.89,2780,4837,2057
1158,593.06,16861.7,1935.3,2878,5036,2158
1159,593.11,16860.29,1936.7,2399,4565,2166
1160,593.16,16858.89,1938.11,2751,4994,2243
1161,593.21,16857.48,1939.51,2767,4841,2074
1162,593.26,16856.08,1940.91,3487,5670,2183
1163,593.31,16854.67,1942.32,2753,5013,2260
1164,593.36,16853.27,1943.72,5783,7862,2079
1165,593.41,16851.87,1945.12,4146,6190,2044
1166,593.46,16850.47,1946.53,2897,5023,2126
1167,593.5,16849.06,1947.93,2658,4779,2121
1168,593.55,16847.66,1949.33,2771,4907,2136
1169,593.6,16846.26,1950.73,2762,4891,2129
1170,593.65,16844.86,1952.13,2947,5096,2149
1171,593.7,16843.46,1953.53,3414,5632,2218
1172,593.75,16842.06,1954.93,2815,4976,2161
1173,593.8,16840.66,1956.33,3072,5144,2072
1174,593.85,16839.26,1957.73,2899,5123,2224
1175,593.9,16837.86,1959.13,2878,4922,2044
1176,593.95,16836.46,1960.53,2920,5131,2211
1177,594,16835.07,1961.93,3179,5092,1913
1178,594.05,16833.67,1963.32,2724,4920,2196
1179,594.1,16832.27,1964.72,2681,4773,2092
1180,594.15,16830.88,1966.12,3610,5809,2199
1181,594.2,16829.48,1967.51,2599,4750,2151
1182,594.24,16828.08,1968.91,2613,4847,2234
1183,594.29,16826.69,1970.3,2630,4885,2255
1184,594.34,16825.29,1971.7,2257,4510,2253
1185,594.39,16823.9,1973.09,2983,5102,2119
1186,594.44,16822.51,1974.49,2825,4947,2122
1187,594.49,16821.11,1975.88,2421,4615,2194
1188,594.54,16819.72,1977.27,2401,4728,2327
1189,594.59,16818.33,1978.67,2677,4675,1998
1190,594.64,16816.93,1980.06,2555,4596,2041
1191,594.69,16815.54,1981.45,2891,5003,2112
1192,594.74,16814.15,1982.84,2797,4930,2133
1193,594.79,16812.76,1984.23,3158,5292,2134
1194,594.84,16811.37,1985.62,2256,4409,2153
1195,594.88,16809.98,1987.01,2982,4991,2009
1196,594.93,16808.59,1988.4,2589,4858,2269
1197,594.98,16807.2,1989.79,2819,4913,2094
1198,595.03,16805.81,1991.18,2710,4958,2248
1199,595.08,16804.42,1992.57,3048,5074,2026
1200,595.13,16803.03,1993.96,2491,4779,2288
1201,595.18,16801.65,1995.35,3465,5768,2303
1202,595.23,16800.26,1996.73,2374,4718,2344
1203,595.28,16798.87,1998.12,3067,5305,2238
1204,595.33,16797.49,1999.51,2697,4711,2014
1205,595.38,16796.1,2000.89,2979,4993,2014
1206,595.43,16794.72,2002.28,2685,4930,2245
1207,595.47,16793.33,2003.66,2931,5176,2245
1208,595.52,16791.95,2005.05,2574,4883,2309
1209,595.57,16790.56,2006.43,2960,5191,2231
1210,595.62,16789.18,2007.82,3051,5415,2364
1211,595.67,16787.79,2009.2,3034,5258,2224
1212,595.72,16786.41,2010.58,2897,4991,2094
1213,595.77,16785.03,2011.96,3218,5586,2368
1214,595.82,16783.65,2013.35,2861,5013,2152
1215,595.87,16782.26,2014.73,2670,4849,2179
1216,595.92,16780.88,2016.11,2521,4870,2349
1217,595.97,16779.5,2017.49,3032,5281,2249
1218,596.01,16778.12,2018.87,2705,4887,2182
1219,596.06,16776.74,2020.25,2862,5024,2162
1220,596.11,16775.36,2021.63,2211,4341,2130
1221,596.16,16773.98,2023.01,2840,5041,2201
1222,596.21,16772.6,2024.39,2935,5207,2272
1223,596.26,16771.23,2025.77,2755,4941,2186
1224,596.31,16769.85,2027.15,3244,5610,2366
1225,596.36,16768.47,2028.52,2625,4713,2088
1226,596.41,16767.09,2029.9,2809,4985,2176
1227,596.46,16765.72,2031.28,2810,4952,2142
1228,596.5,16764.34,2032.65,2893,5034,2141
1229,596.55,16762.96,2034.03,2976,5246,2270
1230,596.6,16761.59,2035.4,2731,4752,2021
1231,596.65,16760.21,2036.78,2890,5000,2110
1232,596.7,16758.84,2038.15,2943,5102,2159
1233,596.75,16757.46,2039.53,3046,5373,2327
1234,596.8,16756.09,2040.9,3617,6069,2452
1235,596.85,16754.72,2042.28,3408,5760,2352
1236,596.9,16753.34,2043.65,2729,5004,2275
1237,596.94,16751.97,2045.02,2807,5027,2220
1238,596.99,16750.6,2046.39,3146,5454,2308
1239,597.04,16749.23,2047.76,3231,5416,2185
1240,597.09,16747.86,2049.14,3185,5521,2336
1241,597.14,16746.49,2050.51,2861,5103,2242
1242,597.19,16745.12,2051.88,2657,4700,2043
1243,597.24,16743.75,2053.25,3488,5739,2251
1244,597.29,16742.38,2054.62,3014,5230,2216
1245,597.34,16741.01,2055.99,2224,4439,2215
1246,597.38,16739.64,2057.35,2302,4530,2228
1247,597.43,16738.27,2058.72,2987,5348,2361
1248,597.48,16736.9,2060.09,2870,5039,2169
1249,597.53,16735.53,2061.46,2861,5062,2201
1250,597.58,16734.17,2062.83,2406,4662,2256
1251,597.63,16732.8,2064.19,2911,5195,2284
1252,597.68,16731.43,2065.56,3068,5490,2422
1253,597.73,16730.07,2066.92,2856,5159,2303
1254,597.77,16728.7,2068.29,2775,4903,2128
1255,597.82,16727.34,2069.65,3279,5535,2256
1256,597.87,16725.97,2071.02,2644,4827,2183
1257,597.92,16724.61,2072.38,2998,5078,2080
1258,597.97,16723.25,2073.75,3402,5779,2377
1259,598.02,16721.88,2075.11,2591,4931,2340
1260,598.07,16720.52,2076.47,2839,5195,2356
1261,598.12,16719.16,2077.84,2751,4976,2225
1262,598.17,16717.79,2079.2,2989,5349,2360
1263,598.21,16716.43,2080.56,3159,5459,2300
1264,598.26,16715.07,2081.92,2571,4763,2192
1265,598.31,16713.71,2083.28,2877,5152,2275
1266,598.36,16712.35,2084.64,2887,5167,2280
1267,598.41,16710.99,2086,2567,4739,2172
1268,598.46,16709.63,2087.36,2511,4798,2287
1269,598.51,16708.27,2088.72,3168,5371,2203
1270,598.55,16706.91,2090.08,3675,5910,2235
1271,598.6,16705.55,2091.44,3049,5180,2131
1272,598.65,16704.2,2092.8,3542,5837,2295
1273,598.7,16702.84,2094.15,2822,5042,2220
1274,598.75,16701.48,2095.51,3320,5539,2219
1275,598.8,16700.12,2096.87,2673,4859,2186
1276,598.85,16698.77,2098.22,2967,5116,2149
1277,598.9,16697.41,2099.58,2880,5134,2254
1278,598.94,16696.06,2100.94,2675,4841,2166
1279,598.99,16694.7,2102.29,2752,5007,2255
1280,599.04,16693.35,2103.64,3269,5582,2313
1281,599.09,16691.99,2105,3938,6146,2208
1282,599.14,16690.64,2106.35,3414,5556,2142
1283,599.19,16689.29,2107.71,2396,4705,2309
1284,599.24,16687.93,2109.06,3002,5211,2209
1285,599.28,16686.58,2110.41,3784,5996,2212
1286,599.33,16685.23,2111.76,2897,5071,2174
1287,599.38,16683.88,2113.12,2941,5156,2215
1288,599.43,16682.53,2114.47,5151,7317,2166
1289,599.48,16681.17,2115.82,2253,4592,2339
1290,599.53,16679.82,2117.17,2548,4869,2321
1291,599.58,16678.47,2118.52,3099,5379,2280
1292,599.62,16677.12,2119.87,2378,4699,2321
1293,599.67,16675.78,2121.22,3013,5178,2165
1294,599.72,16674.43,2122.57,3105,5490,2385
1295,599.77,16673.08,2123.91,2668,5039,2371
1296,599.82,16671.73,2125.26,2387,4673,2286
1297,599.87,16670.38,2126.61,3187,5498,2311
1298,599.91,16669.04,2127.96,2590,4814,2224
1299,599.96,16667.69,2129.3,2830,4979,2149
1300,600.01,16666.34,2130.65,3349,5514,2165
1301,600.06,16665,2132,3105,5479,2374
1302,600.11,16663.65,2133.34,2795,5007,2212
1303,600.16,16662.31,2134.69,2999,5063,2064
1304,600.21,16660.96,2136.03,2754,4937,2183
1305,600.25,16659.62,2137.38,2575,4878,2303
1306,600.3,16658.27,2138.72,2962,5272,2310
1307,600.35,16656.93,2140.06,2634,4907,2273
1308,600.4,16655.59,2141.41,3632,5674,2042
1309,600.45,16654.24,2142.75,2863,5072,2209
1310,600.5,16652.9,2144.09,2267,4519,2252
1311,600.54,16651.56,2145.43,2398,4706,2308
1312,600.59,16650.22,2146.77,2969,5156,2187
1313,600.64,16648.88,2148.11,2370,4623,2253
1314,600.69,16647.54,2149.46,2989,5083,2094
1315,600.74,16646.2,2150.8,2666,4824,2158
1316,600.79,16644.86,2152.14,3337,5706,2369
1317,600.83,16643.52,2153.47,2482,4738,2256
1318,600.88,16642.18,2154.81,2404,4745,2341
1319,600.93,16640.84,2156.15,3219,5472,2253
1320,600.98,16639.5,2157.49,2915,5148,2233
1321,601.03,16638.16,2158.83,3370,5664,2294
1322,601.08,16636.83,2160.16,3575,5720,2145
1323,601.12,16635.49,2161.5,2823,4999,2176
1324,601.17,16634.15,2162.84,2787,5283,2496
1325,601.22,16632.82,2164.17,3059,5189,2130
1326,601.27,16631.48,2165.51,2625,5108,2483
1327,601.32,16630.15,2166.85,2555,4802,2247
1328,601.37,16628.81,2168.18,2703,5013,2310
1329,601.41,16627.48,2169.51,2892,5168,2276
1330,601.46,16626.14,2170.85,2503,4862,2359
1331,601.51,16624.81,2172.18,2747,5154,2407
1332,601.56,16623.48,2173.52,3010,5068,2058
1333,601.61,16622.14,2174.85,2422,4642,2220
1334,601.66,16620.81,2176.18,2450,4764,2314
1335,601.7,16619.48,2177.51,4321,6557,2236
1336,601.75,16618.15,2178.84,2613,5124,2511
1337,601.8,16616.82,2180.17,3140,5402,2262
1338,601.85,16615.49,2181.51,3285,5622,2337
1339,601.9,16614.16,2182.84,3038,5401,2363
1340,601.94,16612.83,2184.17,2895,5273,2378
1341,601.99,16611.5,2185.49,2935,5228,2293
1342,602.04,16610.17,2186.82,2831,5111,2280
1343,602.09,16608.84,2188.15,2741,5127,2386
1344,602.14,16607.51,2189.48,3159,5494,2335
1345,602.19,16606.18,2190.81,2734,5062,2328
1346,602.23,16604.86,2192.14,2618,4953,2335
1347,602.28,16603.53,2193.46,2600,4864,2264
1348,602.33,16602.2,2194.79,3246,5407,2161
1349,602.38,16600.88,2196.12,2721,4999,2278
1350,602.43,16599.55,2197.44,2548,4857,2309
1351,602.47,16598.23,2198.77,3275,5532,2257
1352,602.52,16596.9,2200.09,2795,5115,2320
1353,602.57,16595.58,2201.42,2809,5104,2295
1354,602.62,16594.25,2202.74,2988,5370,2382
1355,602.67,16592.93,2204.06,3367,5696,2329
1356,602.71,16591.6,2205.39,2745,5032,2287
1357,602.76,16590.28,2206.71,3229,5516,2287
1358,602.81,16588.96,2208.03,3826,5938,2112
1359,602.86,16587.64,2209.36,2753,5063,2310
1360,602.91,16586.32,2210.68,2489,4970,2481
1361,602.95,16584.99,2212,2850,5204,2354
1362,603,16583.67,2213.32,2312,4586,2274
1363,603.05,16582.35,2214.64,2684,5026,2342
1364,603.1,16581.03,2215.96,2237,4537,2300
1365,603.15,16579.71,2217.28,2659,4906,2247
1366,603.19,16578.39,2218.6,2498,4714,2216
1367,603.24,16577.08,2219.92,2784,5131,2347
1368,603.29,16575.76,2221.24,2768,5247,2479
1369,603.34,16574.44,2222.55,2630,4958,2328
1370,603.39,16573.12,2223.87,2603,4722,2119
1371,603.43,16571.8,2225.19,3337,5630,2293
1372,603.48,16570.49,2226.51,2660,4942,2282
1373,603.53,16569.17,2227.82,4294,6523,2229
1374,603.58,16567.85,2229.14,2355,4679,2324
1375,603.63,16566.54,2230.45,2542,4833,2291
1376,603.67,16565.22,2231.77,2790,5118,2328
1377,603.72,16563.91,2233.08,2560,4848,2288
1378,603.77,16562.59,2234.4,2751,4993,2242
1379,603.82,16561.28,2235.71,3129,5358,2229
1380,603.87,16559.97,2237.03,2686,5070,2384
1381,603.91,16558.65,2238.34,2518,4937,2419
1382,603.96,16557.34,2239.65,3276,5567,2291
1383,604.01,16556.03,2240.96,2970,5336,2366
1384,604.06,16554.72,2242.28,3155,5574,2419
1385,604.11,16553.41,2243.59,2508,4795,2287
1386,604.15,16552.09,2244.9,2659,5127,2468
1387,604.2,16550.78,2246.21,2996,5337,2341
1388,604.25,16549.47,2247.52,2772,4906,2134
1389,604.3,16548.16,2248.83,3143,5420,2277
1390,604.34,16546.85,2250.14,2923,5203,2280
1391,604.39,16545.55,2251.45,2649,5044,2395
1392,604.44,16544.24,2252.76,3383,5643,2260
1393,604.49,16542.93,2254.06,2694,5049,2355
1394,604.54,16541.62,2255.37,2554,5003,2449
1395,604.58,16540.31,2256.68,3634,5830,2196
1396,604.63,16539.01,2257.99,2471,4755,2284
1397,604.68,16537.7,2259.29,2880,5173,2293
1398,604.73,16536.39,2260.6,3066,5430,2364
1399,604.77,16535.09,2261.91,3051,5366,2315
1400,604.82,16533.78,2263.21,2590,4846,2256
1401,604.87,16532.48,2264.52,2392,4744,2352
1402,604.92,16531.17,2265.82,2991,5255,2264
1403,604.97,16529.87,2267.12,2767,5015,2248
1404,605.01,16528.56,2268.43,2914,5240,2326
1405,605.06,16527.26,2269.73,2528,4695,2167
1406,605.11,16525.96,2271.03,2628,5015,2387
1407,605.16,16524.65,2272.34,2624,4915,2291
1408,605.2,16523.35,2273.64,2237,4599,2362
1409,605.25,16522.05,2274.94,2647,4808,2161
1410,605.3,16520.75,2276.24,2529,4772,2243
1411,605.35,16519.45,2277.54,2329,4627,2298
1412,605.39,16518.15,2278.84,3152,5304,2152
1413,605.44,16516.85,2280.14,2543,4935,2392
1414,605.49,16515.55,2281.44,2995,5429,2434
1415,605.54,16514.25,2282.74,2614,5156,2542
1416,605.59,16512.95,2284.04,2716,5070,2354
1417,605.63,16511.65,2285.34,2588,5048,2460
1418,605.68,16510.35,2286.64,2387,4679,2292
1419,605.73,16509.06,2287.94,2845,5358,2513
1420,605.78,16507.76,2289.23,3315,5628,2313
1421,605.82,16506.46,2290.53,2629,4924,2295
1422,605.87,16505.16,2291.83,2632,4885,2253
1423,605.92,16503.87,2293.12,2475,4852,2377
1424,605.97,16502.57,2294.42,2567,4932,2365
1425,606.01,16501.28,2295.72,2802,5285,2483
1426,606.06,16499.98,2297.01,3213,5675,2462
1427,606.11,16498.69,2298.3,3062,5396,2334
1428,606.16,16497.39,2299.6,2567,4856,2289
1429,606.2,16496.1,2300.89,2704,5013,2309
1430,606.25,16494.81,2302.19,2579,4862,2283
1431,606.3,16493.51,2303.48,2767,5180,2413
1432,606.35,16492.22,2304.77,3205,5721,2516
1433,606.39,16490.93,2306.06,2592,4929,2337
1434,606.44,16489.64,2307.35,2819,5238,2419
1435,606.49,16488.35,2308.65,2716,5056,2340
1436,606.54,16487.06,2309.94,2500,4812,2312
1437,606.58,16485.76,2311.23,2892,5190,2298
1438,606.63,16484.47,2312.52,2921,5420,2499
1439,606.68,16483.19,2313.81,2420,4846,2426
1440,606.73,16481.9,2315.1,2918,5327,2409
1441,606.77,16480.61,2316.39,2820,5184,2364
1442,606.82,16479.32,2317.67,3023,5359,2336
1443,606.87,16478.03,2318.96,2823,5248,2425
1444,606.92,16476.74,2320.25,2746,5259,2513
1445,606.96,16475.46,2321.54,2691,5068,2377
1446,607.01,16474.17,2322.82,2842,5411,2569
1447,607.06,16472.88,2324.11,3020,5844,2824
1448,607.11,16471.6,2325.4,2828,5703,2875
1449,607.15,16470.31,2326.68,2400,6026,3626
1450,607.2,16469.03,2327.97,2701,7059,4358
1451,607.25,16467.74,2329.25,2411,7898,5487
1452,607.3,16466.46,2330.54,2987,8281,5294
1453,607.34,16465.17,2331.82,2836,7172,4336
1454,607.39,16463.89,2333.1,3038,6082,3044
1455,607.44,16462.6,2334.39,2723,5354,2631
1456,607.48,16461.32,2335.67,3259,5782,2523
1457,607.53,16460.04,2336.95,3042,5495,2453
1458,607.58,16458.76,2338.24,2575,4986,2411
1459,607.63,16457.48,2339.52,3521,5751,2230
1460,607.67,16456.19,2340.8,2279,4692,2413
1461,607.72,16454.91,2342.08,2958,5445,2487
1462,607.77,16453.63,2343.36,2606,5210,2604
1463,607.82,16452.35,2344.64,2582,4839,2257
1464,607.86,16451.07,2345.92,2811,5185,2374
1465,607.91,16449.79,2347.2,2879,5246,2367
1466,607.96,16448.52,2348.48,3132,5511,2379
1467,608,16447.24,2349.76,2552,5088,2536
1468,608.05,16445.96,2351.03,2579,5059,2480
1469,608.1,16444.68,2352.31,2808,5022,2214
1470,608.15,16443.4,2353.59,2572,5010,2438
1471,608.19,16442.13,2354.87,2865,5133,2268
1472,608.24,16440.85,2356.14,3154,5601,2447
1473,608.29,16439.57,2357.42,3099,5510,2411
1474,608.34,16438.3,2358.69,2867,5294,2427
1475,608.38,16437.02,2359.97,2250,4751,2501
1476,608.43,16435.75,2361.24,2886,5296,2410
1477,608.48,16434.47,2362.52,3014,5433,2419
1478,608.52,16433.2,2363.79,2731,5121,2390
1479,608.57,16431.93,2365.07,2712,5294,2582
1480,608.62,16430.65,2366.34,2754,5131,2377
1481,608.67,16429.38,2367.61,3768,6201,2433
1482,608.71,16428.11,2368.88,3247,5663,2416
1483,608.76,16426.84,2370.16,2338,4933,2595
1484,608.81,16425.56,2371.43,3015,5516,2501
1485,608.85,16424.29,2372.7,2857,5468,2611
1486,608.9,16423.02,2373.97,3184,5771,2587
1487,608.95,16421.75,2375.24,2871,5342,2471
1488,609,16420.48,2376.51,2886,5424,2538
1489,609.04,16419.21,2377.78,2539,5091,2552
1490,609.09,16417.94,2379.05,2691,5132,2441
1491,609.14,16416.67,2380.32,2742,5189,2447
1492,609.18,16415.4,2381.59,2674,5215,2541
1493,609.23,16414.14,2382.86,3477,5965,2488
1494,609.28,16412.87,2384.12,2965,5457,2492
1495,609.33,16411.6,2385.39,2865,5386,2521
1496,609.37,16410.33,2386.66,3551,6115,2564
1497,609.42,16409.07,2387.92,2818,5335,2517
1498,609.47,16407.8,2389.19,2819,5444,2625
1499,609.51,16406.54,2390.46,2804,5368,2564
1500,609.56,16405.27,2391.72,2878,5428,2550
1501,609.61,16404.01,2392.99,2995,5805,2810
1502,609.65,16402.74,2394.25,2594,5133,2539
1503,609.7,16401.48,2395.51,2646,5051,2405
1504,609.75,16400.21,2396.78,2855,5298,2443
1505,609.8,16398.95,2398.04,2713,5471,2758
1506,609.84,16397.69,2399.3,2506,5175,2669
1507,609.89,16396.43,2400.57,2991,5664,2673
1508,609.94,16395.16,2401.83,2711,5319,2608
1509,609.98,16393.9,2403.09,2639,5176,2537
1510,610.03,16392.64,2404.35,3861,6533,2672
1511,610.08,16391.38,2405.61,2894,5629,2735
1512,610.12,16390.12,2406.87,2725,5263,2538
1513,610.17,16388.86,2408.13,2815,5649,2834
1514,610.22,16387.6,2409.39,2718,5360,2642
1515,610.26,16386.34,2410.65,2866,5375,2509
1516,610.31,16385.08,2411.91,3125,5707,2582
1517,610.36,16383.82,2413.17,2270,4954,2684
1518,610.41,16382.56,2414.43,3142,5690,2548
1519,610.45,16381.31,2415.69,2449,5114,2665
1520,610.5,16380.05,2416.94,3419,6157,2738
1521,610.55,16378.79,2418.2,2852,5706,2854
1522,610.59,16377.53,2419.46,2643,5353,2710
1523,610.64,16376.28,2420.71,2398,5251,2853
1524,610.69,16375.02,2421.97,3252,5806,2554
1525,610.73,16373.77,2423.22,2667,5508,2841
1526,610.78,16372.51,2424.48,2722,5580,2858
1527,610.83,16371.26,2425.73,3116,5701,2585
1528,610.87,16370,2426.99,2810,5530,2720
1529,610.92,16368.75,2428.24,2789,5646,2857
1530,610.97,16367.5,2429.5,2781,5530,2749
1531,611.01,16366.24,2430.75,2595,5488,2893
1532,611.06,16364.99,2432,3142,5928,2786
1533,611.11,16363.74,2433.25,2586,5386,2800
1534,611.15,16362.49,2434.51,3175,6076,2901
1535,611.2,16361.24,2435.76,4252,6964,2712
1536,611.25,16359.98,2437.01,3109,5954,2845
1537,611.29,16358.73,2438.26,3128,5995,2867
1538,611.34,16357.48,2439.51,4079,7054,2975
1539,611.39,16356.23,2440.76,2725,5615,2890
1540,611.43,16354.98,2442.01,2463,5294,2831
1541,611.48,16353.74,2443.26,3052,5827,2775
1542,611.53,16352.49,2444.51,2717,5617,2900
1543,611.57,16351.24,2445.75,2816,5914,3098
1544,611.62,16349.99,2447,3408,6257,2849
1545,611.67,16348.74,2448.25,3138,5941,2803
1546,611.71,16347.5,2449.5,2422,5362,2940
1547,611.76,16346.25,2450.74,2689,5572,2883
1548,611.81,16345,2451.99,2749,5705,2956
1549,611.85,16343.76,2453.24,3048,6053,3005
1550,611.9,16342.51,2454.48,3230,5922,2692
1551,611.95,16341.27,2455.73,2661,5470,2809
1552,611.99,16340.02,2456.97,3191,6161,2970
1553,612.04,16338.78,2458.22,2573,5633,3060
1554,612.09,16337.53,2459.46,3394,6227,2833
1555,612.13,16336.29,2460.7,2791,5783,2992
1556,612.18,16335.05,2461.95,2461,5375,2914
1557,612.23,16333.8,2463.19,3039,5905,2866
1558,612.27,16332.56,2464.43,2420,5416,2996
1559,612.32,16331.32,2465.67,3343,6307,2964
1560,612.37,16330.08,2466.92,2897,5658,2761
1561,612.41,16328.84,2468.16,2848,5733,2885
1562,612.46,16327.6,2469.4,3590,6263,2673
1563,612.51,16326.35,2470.64,2706,5699,2993
1564,612.55,16325.11,2471.88,2701,5662,2961
1565,612.6,16323.88,2473.12,3183,6083,2900
1566,612.65,16322.64,2474.36,2704,5539,2835
1567,612.69,16321.4,2475.6,3311,6064,2753
1568,612.74,16320.16,2476.83,2554,5503,2949
1569,612.79,16318.92,2478.07,3043,5839,2796
1570,612.83,16317.68,2479.31,2928,5793,2865
1571,612.88,16316.45,2480.55,3148,6100,2952
1572,612.93,16315.21,2481.78,2674,5534,2860
1573,612.97,16313.97,2483.02,2463,5338,2875
1574,613.02,16312.74,2484.26,2921,5812,2891
1575,613.06,16311.5,2485.49,2802,5656,2854
1576,613.11,16310.27,2486.73,3486,6258,2772
1577,613.16,16309.03,2487.96,10579,13315,2736
1578,613.2,16307.8,2489.2,2791,5686,2895
1579,613.25,16306.56,2490.43,2858,5736,2878
1580,613.3,16305.33,2491.66,2857,5753,2896
1581,613.34,16304.09,2492.9,2767,5542,2775
1582,613.39,16302.86,2494.13,2796,5665,2869
1583,613.44,16301.63,2495.36,3057,5879,2822
1584,613.48,16300.4,2496.6,3025,5955,2930
1585,613.53,16299.16,2497.83,2475,5298,2823
1586,613.57,16297.93,2499.06,3206,6048,2842
1587,613.62,16296.7,2500.29,2613,5486,2873
