Pixel,Wavelength,Wavenumber,Raman Shift,Dark,Raw data #1,Dark Subtracted #1
34,533.81,18733.31,63.69,2563,4836,2273
35,533.86,18731.36,65.63,3644,5921,2277
36,533.92,18729.41,67.58,3047,5616,2569
37,533.98,18727.47,69.53,3252,6110,2858
38,534.03,18725.52,71.47,3127,6123,2996
39,534.09,18723.58,73.42,3080,6155,3075
40,534.14,18721.63,75.36,2914,6133,3219
41,534.2,18719.69,77.3,3058,6407,3349
42,534.25,18717.74,79.25,3352,7034,3682
43,534.31,18715.8,81.19,2674,6282,3608
44,534.36,18713.86,83.13,2887,6825,3938
45,534.42,18711.92,85.08,3031,6999,3968
46,534.47,18709.98,87.02,3208,7478,4270
47,534.53,18708.04,88.96,3829,8245,4416
48,534.59,18706.1,90.9,3207,7734,4527
49,534.64,18704.16,92.84,2545,7553,5008
50,534.7,18702.22,94.78,2905,7954,5049
51,534.75,18700.28,96.71,2652,7938,5286
52,534.81,18698.34,98.65,2674,7627,4953
53,534.86,18696.4,100.59,2789,7706,4917
54,534.92,18694.47,102.53,2834,7686,4852
55,534.97,18692.53,104.46,2853,7887,5034
56,535.03,18690.59,106.4,3651,8821,5170
57,535.08,18688.66,108.33,3087,8577,5490
58,535.14,18686.72,110.27,4148,9471,5323
59,535.19,18684.79,112.2,4063,8824,4761
60,535.25,18682.86,114.14,3971,9006,5035
61,535.31,18680.92,116.07,3290,8342,5052
62,535.36,18678.99,118,3514,8288,4774
63,535.42,18677.06,119.93,3277,8211,4934
64,535.47,18675.13,121.87,2828,7662,4834
65,535.53,18673.2,123.8,2934,7685,4751
66,535.58,18671.27,125.73,3260,8051,4791
67,535.64,18669.34,127.66,3148,7850,4702
68,535.69,18667.41,129.59,2759,7305,4546
69,535.75,18665.48,131.52,3061,7618,4557
70,535.8,18663.55,133.44,2725,7312,4587
71,535.86,18661.62,135.37,3230,7428,4198
72,535.91,18659.69,137.3,3123,7509,4386
73,535.97,18657.77,139.22,2473,7099,4626
74,536.03,18655.84,141.15,3532,7874,4342
75,536.08,18653.92,143.08,2687,7144,4457
76,536.14,18651.99,145,2721,6775,4054
77,536.19,18650.07,146.93,2997,7155,4158
78,536.25,18648.14,148.85,3019,7036,4017
79,536.3,18646.22,150.77,2448,6758,4310
80,536.36,18644.3,152.7,2463,6431,3968
81,536.41,18642.37,154.62,2686,6782,4096
82,536.47,18640.45,156.54,3179,7249,4070
83,536.52,18638.53,158.46,4131,8112,3981
84,536.58,18636.61,160.38,3164,7091,3927
85,536.63,18634.69,162.3,3239,7106,3867
86,536.69,18632.77,164.22,3387,7477,4090
87,536.74,18630.85,166.14,3257,6987,3730
88,536.8,18628.93,168.06,3058,7020,3962
89,536.85,18627.02,169.98,7097,11057,3960
90,536.91,18625.1,171.89,3142,7182,4040
91,536.97,18623.18,173.81,2892,6922,4030
92,537.02,18621.27,175.73,3642,7352,3710
93,537.08,18619.35,177.64,3157,7192,4035
94,537.13,18617.43,179.56,2700,6554,3854
95,537.19,18615.52,181.47,2815,6611,3796
96,537.24,18613.61,183.39,3320,7112,3792
97,537.3,18611.69,185.3,3057,6931,3874
98,537.35,18609.78,187.21,2420,6378,3958
99,537.41,18607.87,189.13,2579,6762,4183
100,537.46,18605.96,191.04,3246,6968,3722
101,537.52,18604.04,192.95,3336,7181,3845
102,537.57,18602.13,194.86,3389,7112,3723
103,537.63,18600.22,196.77,2777,6598,3821
104,537.68,18598.31,198.68,2842,6463,3621
105,537.74,18596.4,200.59,2726,6532,3806
106,537.79,18594.49,202.5,3398,7244,3846
107,537.85,18592.59,204.41,2718,6251,3533
108,537.9,18590.68,206.31,3439,7046,3607
109,537.96,18588.77,208.22,3308,6785,3477
110,538.01,18586.87,210.13,3083,6658,3575
111,538.07,18584.96,212.03,3321,6977,3656
112,538.12,18583.05,213.94,3141,6795,3654
113,538.18,18581.15,215.84,2906,6606,3700
114,538.24,18579.24,217.75,2737,6413,3676
115,538.29,18577.34,219.65,3332,6939,3607
116,538.35,18575.44,221.56,2905,6453,3548
117,538.4,18573.53,223.46,2980,6687,3707
118,538.46,18571.63,225.36,3200,6850,3650
119,538.51,18569.73,227.26,3036,6572,3536
120,538.57,18567.83,229.16,3207,6814,3607
121,538.62,18565.93,231.06,2995,6567,3572
122,538.68,18564.03,232.96,3167,6953,3786
123,538.73,18562.13,234.86,2423,5964,3541
124,538.79,18560.23,236.76,3364,7081,3717
125,538.84,18558.33,238.66,3702,7332,3630
126,538.9,18556.43,240.56,2886,6533,3647
127,538.95,18554.54,242.46,2951,6534,3583
128,539.01,18552.64,244.35,3119,6862,3743
129,539.06,18550.74,246.25,3780,7577,3797
130,539.12,18548.85,248.15,3198,7021,3823
131,539.17,18546.95,250.04,3902,7526,3624
132,539.23,18545.06,251.94,3580,7349,3769
133,539.28,18543.16,253.83,3559,7278,3719
134,539.34,18541.27,255.72,3278,6951,3673
135,539.39,18539.37,257.62,2785,6421,3636
136,539.45,18537.48,259.51,2948,6846,3898
137,539.5,18535.59,261.4,3442,7006,3564
138,539.56,18533.7,263.29,2965,6933,3968
139,539.61,18531.81,265.18,3370,7217,3847
140,539.67,18529.92,267.08,3479,7185,3706
141,539.72,18528.03,268.97,2198,6130,3932
142,539.78,18526.14,270.85,3123,6994,3871
143,539.83,18524.25,272.74,2794,6646,3852
144,539.89,18522.36,274.63,3175,7117,3942
145,539.94,18520.47,276.52,3475,7383,3908
146,540,18518.59,278.41,3032,6818,3786
147,540.05,18516.7,280.29,3351,7293,3942
148,540.11,18514.81,282.18,3397,7128,3731
149,540.16,18512.93,284.07,3303,7128,3825
150,540.22,18511.04,285.95,3017,6655,3638
151,540.27,18509.16,287.84,3397,7206,3809
152,540.33,18507.27,289.72,3033,6854,3821
153,540.38,18505.39,291.6,2695,6594,3899
154,540.44,18503.51,293.49,2882,6600,3718
155,540.49,18501.62,295.37,2922,6679,3757
156,540.55,18499.74,297.25,3247,7103,3856
157,540.6,18497.86,299.13,2748,6644,3896
158,540.66,18495.98,301.01,2598,6415,3817
159,540.71,18494.1,302.89,2982,6763,3781
160,540.77,18492.22,304.77,2775,6716,3941
161,540.82,18490.34,306.65,3383,7292,3909
162,540.88,18488.46,308.53,2651,6452,3801
163,540.93,18486.58,310.41,2835,6590,3755
164,540.99,18484.7,312.29,2733,6632,3899
165,541.04,18482.83,314.16,2655,6651,3996
166,541.1,18480.95,316.04,2572,6366,3794
167,541.15,18479.07,317.92,3331,7155,3824
168,541.21,18477.2,319.79,3153,7077,3924
169,541.26,18475.32,321.67,2229,6182,3953
170,541.32,18473.45,323.54,3211,7138,3927
171,541.37,18471.58,325.42,3099,7259,4160
172,541.43,18469.7,327.29,2925,7023,4098
173,541.48,18467.83,329.16,3281,7247,3966
174,541.54,18465.96,331.04,3232,7263,4031
175,541.59,18464.08,332.91,2866,6912,4046
176,541.65,18462.21,334.78,3100,7151,4051
177,541.7,18460.34,336.65,3091,7272,4181
178,541.76,18458.47,338.52,2871,7130,4259
179,541.81,18456.6,340.39,2788,7002,4214
180,541.87,18454.73,342.26,3464,7448,3984
181,541.92,18452.86,344.13,3629,7749,4120
182,541.98,18451,346,3366,7493,4127
183,542.03,18449.13,347.86,2852,6890,4038
184,542.09,18447.26,349.73,2988,7097,4109
185,542.14,18445.39,351.6,2790,6954,4164
186,542.2,18443.53,353.46,2666,6804,4138
187,542.25,18441.66,355.33,2526,6745,4219
188,542.31,18439.8,357.19,3063,7330,4267
189,542.36,18437.93,359.06,2368,6378,4010
190,542.41,18436.07,360.92,2855,7084,4229
191,542.47,18434.21,362.79,3046,7158,4112
192,542.52,18432.34,364.65,2831,7054,4223
193,542.58,18430.48,366.51,3087,7418,4331
194,542.63,18428.62,368.37,2627,7082,4455
195,542.69,18426.76,370.23,3350,7555,4205
196,542.74,18424.9,372.1,3367,7541,4174
197,542.8,18423.04,373.96,2770,6838,4068
198,542.85,18421.18,375.82,2796,7047,4251
199,542.91,18419.32,377.67,2434,6833,4399
200,542.96,18417.46,379.53,3091,7403,4312
201,543.02,18415.6,381.39,2960,7089,4129
202,543.07,18413.74,383.25,2497,6821,4324
203,543.13,18411.89,385.11,3004,7299,4295
204,543.18,18410.03,386.96,3274,7728,4454
205,543.24,18408.17,388.82,3330,7446,4116
206,543.29,18406.32,390.67,2589,6988,4399
207,543.35,18404.46,392.53,2906,7263,4357
208,543.4,18402.61,394.38,2983,7248,4265
209,543.46,18400.75,396.24,2943,7227,4284
210,543.51,18398.9,398.09,5044,9454,4410
211,543.57,18397.05,399.94,3347,7763,4416
212,543.62,18395.2,401.8,2818,7148,4330
213,543.67,18393.34,403.65,2882,7270,4388
214,543.73,18391.49,405.5,2773,7153,4380
215,543.78,18389.64,407.35,3319,7773,4454
216,543.84,18387.79,409.2,4846,9302,4456
217,543.89,18385.94,411.05,3346,7878,4532
218,543.95,18384.09,412.9,3597,8014,4417
219,544,18382.24,414.75,2781,7272,4491
220,544.06,18380.4,416.6,2801,7194,4393
221,544.11,18378.55,418.44,3003,7626,4623
222,544.17,18376.7,420.29,3240,7812,4572
223,544.22,18374.85,422.14,5176,9913,4737
224,544.28,18373.01,423.98,3134,7649,4515
225,544.33,18371.16,425.83,3168,7974,4806
226,544.39,18369.32,427.68,3259,8108,4849
227,544.44,18367.47,429.52,2757,7536,4779
228,544.5,18365.63,431.36,2961,7531,4570
229,544.55,18363.79,433.21,8233,12956,4723
230,544.6,18361.94,435.05,7871,12478,4607
231,544.66,18360.1,436.89,2958,7725,4767
232,544.71,18358.26,438.73,3202,7825,4623
233,544.77,18356.42,440.58,2805,7580,4775
234,544.82,18354.58,442.42,3543,8114,4571
235,544.88,18352.74,444.26,3304,7583,4279
236,544.93,18350.9,446.1,3232,7941,4709
237,544.99,18349.06,447.94,2636,7329,4693
238,545.04,18347.22,449.78,3025,7834,4809
239,545.1,18345.38,451.61,3304,8063,4759
240,545.15,18343.54,453.45,2922,7690,4768
241,545.21,18341.7,455.29,3250,7903,4653
242,545.26,18339.87,457.13,2517,7156,4639
243,545.31,18338.03,458.96,2959,7781,4822
244,545.37,18336.2,460.8,2767,7466,4699
245,545.42,18334.36,462.63,3381,8016,4635
246,545.48,18332.53,464.47,2761,7618,4857
247,545.53,18330.69,466.3,3339,8151,4812
248,545.59,18328.86,468.13,2914,7564,4650
249,545.64,18327.03,469.97,2346,7011,4665
250,545.7,18325.19,471.8,2493,7133,4640
251,545.75,18323.36,473.63,3117,7828,4711
252,545.81,18321.53,475.46,2847,7643,4796
253,545.86,18319.7,477.29,2431,7131,4700
254,545.92,18317.87,479.12,3650,8439,4789
255,545.97,18316.04,480.95,2332,7314,4982
256,546.02,18314.21,482.78,3758,8197,4439
257,546.08,18312.38,484.61,3153,7886,4733
258,546.13,18310.55,486.44,2391,7250,4859
259,546.19,18308.72,488.27,3039,8018,4979
260,546.24,18306.9,490.1,3389,8266,4877
261,546.3,18305.07,491.92,4208,8816,4608
262,546.35,18303.24,493.75,2882,7497,4615
263,546.41,18301.42,495.58,3354,8102,4748
264,546.46,18299.59,497.4,3723,8477,4754
265,546.51,18297.77,499.23,2656,7416,4760
266,546.57,18295.94,501.05,3318,7893,4575
267,546.62,18294.12,502.87,2760,7403,4643
268,546.68,18292.3,504.7,2715,7012,4297
269,546.73,18290.47,506.52,3102,7443,4341
270,546.79,18288.65,508.34,2977,7415,4438
271,546.84,18286.83,510.16,2859,7165,4306
272,546.9,18285.01,511.98,3464,7749,4285
273,546.95,18283.19,513.81,3212,7633,4421
274,547.01,18281.37,515.63,3266,7592,4326
275,547.06,18279.55,517.44,2552,6784,4232
276,547.11,18277.73,519.26,3607,7658,4051
277,547.17,18275.91,521.08,3091,7204,4113
278,547.22,18274.09,522.9,3238,7280,4042
279,547.28,18272.27,524.72,3510,7626,4116
280,547.33,18270.46,526.53,2989,7171,4182
281,547.39,18268.64,528.35,2793,6851,4058
282,547.44,18266.83,530.17,3202,7073,3871
283,547.49,18265.01,531.98,2850,6958,4108
284,547.55,18263.19,533.8,3367,7454,4087
285,547.6,18261.38,535.61,2493,6794,4301
286,547.66,18259.57,537.43,3036,7233,4197
287,547.71,18257.75,539.24,3052,7201,4149
288,547.77,18255.94,541.05,3233,7292,4059
289,547.82,18254.13,542.86,2955,6957,4002
290,547.88,18252.32,544.68,2888,6909,4021
291,547.93,18250.5,546.49,3402,7329,3927
292,547.98,18248.69,548.3,2616,6526,3910
293,548.04,18246.88,550.11,2917,7082,4165
294,548.09,18245.07,551.92,2836,6618,3782
295,548.15,18243.26,553.73,2939,6940,4001
296,548.2,18241.46,555.54,2553,6737,4184
297,548.26,18239.65,557.34,3411,7394,3983
298,548.31,18237.84,559.15,3062,7069,4007
299,548.36,18236.03,560.96,2438,6691,4253
300,548.42,18234.23,562.77,2752,6979,4227
301,548.47,18232.42,564.57,4194,8442,4248
302,548.53,18230.61,566.38,3469,7719,4250
303,548.58,18228.81,568.18,2842,7116,4274
304,548.64,18227,569.99,3275,7251,3976
305,548.69,18225.2,571.79,2991,7184,4193
306,548.75,18223.4,573.6,2607,6895,4288
307,548.8,18221.59,575.4,3040,7093,4053
308,548.85,18219.79,577.2,3115,7368,4253
309,548.91,18217.99,579,3073,7318,4245
310,548.96,18216.19,580.8,3603,7818,4215
311,549.02,18214.39,582.61,3881,8254,4373
312,549.07,18212.59,584.41,2794,7100,4306
313,549.13,18210.79,586.21,3694,8105,4411
314,549.18,18208.99,588.01,3078,7557,4479
315,549.23,18207.19,589.8,3972,8374,4402
316,549.29,18205.39,591.6,3093,7552,4459
317,549.34,18203.59,593.4,3127,7613,4486
318,549.4,18201.79,595.2,3336,7856,4520
319,549.45,18200,597,3633,8270,4637
320,549.5,18198.2,598.79,3494,8152,4658
321,549.56,18196.4,600.59,3433,7983,4550
322,549.61,18194.61,602.38,3853,8478,4625
323,549.67,18192.81,604.18,3678,8221,4543
324,549.72,18191.02,605.97,4237,8860,4623
325,549.78,18189.23,607.77,4414,8998,4584
326,549.83,18187.43,609.56,4005,8675,4670
327,549.88,18185.64,611.35,4242,8891,4649
328,549.94,18183.85,613.15,4006,8711,4705
329,549.99,18182.06,614.94,4350,8942,4592
330,550.05,18180.26,616.73,4445,8830,4385
331,550.1,18178.47,618.52,4036,8885,4849
332,550.16,18176.68,620.31,3622,8390,4768
333,550.21,18174.89,622.1,3888,8502,4614
334,550.26,18173.1,623.89,3838,8559,4721
335,550.32,18171.32,625.68,3602,8122,4520
336,550.37,18169.53,627.47,3627,8306,4679
337,550.43,18167.74,629.25,4455,9184,4729
338,550.48,18165.95,631.04,3221,7847,4626
339,550.53,18164.17,632.83,3324,8355,5031
340,550.59,18162.38,634.61,3328,8089,4761
341,550.64,18160.59,636.4,3366,7986,4620
342,550.7,18158.81,638.18,3564,8260,4696
343,550.75,18157.02,639.97,3063,7967,4904
344,550.81,18155.24,641.75,3468,8374,4906
345,550.86,18153.46,643.54,2836,7645,4809
346,550.91,18151.67,645.32,3656,8819,5163
347,550.97,18149.89,647.1,3562,8556,4994
348,551.02,18148.11,648.88,3085,8365,5280
349,551.08,18146.33,650.67,3120,8191,5071
350,551.13,18144.54,652.45,3362,8527,5165
351,551.18,18142.76,654.23,2987,8604,5617
352,551.24,18140.98,656.01,2930,8526,5596
353,551.29,18139.2,657.79,2860,8507,5647
354,551.35,18137.43,659.57,2864,8737,5873
355,551.4,18135.65,661.35,3440,9466,6026
356,551.45,18133.87,663.12,3126,9042,5916
357,551.51,18132.09,664.9,3095,9005,5910
358,551.56,18130.31,666.68,3010,8818,5808
359,551.62,18128.54,668.46,3074,9003,5929
360,551.67,18126.76,670.23,2940,8703,5763
361,551.72,18124.99,672.01,3227,8758,5531
362,551.78,18123.21,673.78,2273,8187,5914
363,551.83,18121.44,675.56,3046,8549,5503
364,551.89,18119.66,677.33,2655,8125,5470
365,551.94,18117.89,679.1,2970,8318,5348
366,551.99,18116.12,680.88,3488,9000,5512
367,552.05,18114.34,682.65,3338,8808,5470
368,552.1,18112.57,684.42,2304,7454,5150
369,552.16,18110.8,686.19,2559,7875,5316
370,552.21,18109.03,687.96,2821,8231,5410
371,552.26,18107.26,689.73,2631,7978,5347
372,552.32,18105.49,691.5,3200,8259,5059
373,552.37,18103.72,693.27,3044,8509,5465
374,552.43,18101.95,695.04,3211,8346,5135
375,552.48,18100.18,696.81,2930,8186,5256
376,552.53,18098.41,698.58,3076,8242,5166
377,552.59,18096.65,700.35,3094,8278,5184
378,552.64,18094.88,702.11,3181,8261,5080
379,552.7,18093.11,703.88,3869,9119,5250
380,552.75,18091.35,705.65,2678,7881,5203
381,552.8,18089.58,707.41,3504,8559,5055
382,552.86,18087.82,709.18,2822,7840,5018
383,552.91,18086.05,710.94,3167,8353,5186
384,552.97,18084.29,712.7,3133,8309,5176
385,553.02,18082.52,714.47,3226,8229,5003
386,553.07,18080.76,716.23,2824,8115,5291
387,553.13,18079,717.99,2598,7563,4965
388,553.18,18077.24,719.76,3133,8198,5065
389,553.24,18075.48,721.52,2747,7760,5013
390,553.29,18073.71,723.28,3059,8074,5015
391,553.34,18071.95,725.04,2906,7870,4964
392,553.4,18070.19,726.8,3203,8115,4912
393,553.45,18068.44,728.56,2579,7756,5177
394,553.51,18066.68,730.32,2908,7796,4888
395,553.56,18064.92,732.07,3094,8192,5098
396,553.61,18063.16,733.83,3470,8402,4932
397,553.67,18061.4,735.59,3163,8291,5128
398,553.72,18059.65,737.35,3423,8675,5252
399,553.77,18057.89,739.1,3031,8002,4971
400,553.83,18056.13,740.86,3276,8362,5086
401,553.88,18054.38,742.61,2702,7788,5086
402,553.94,18052.62,744.37,2900,7872,4972
403,553.99,18050.87,746.12,2586,7614,5028
404,554.04,18049.11,747.88,2953,8193,5240
405,554.1,18047.36,749.63,3503,8704,5201
406,554.15,18045.61,751.38,3380,8334,4954
407,554.21,18043.86,753.14,3053,7933,4880
408,554.26,18042.1,754.89,2621,7571,4950
409,554.31,18040.35,756.64,3435,8351,4916
410,554.37,18038.6,758.39,3356,8318,4962
411,554.42,18036.85,760.14,5110,9980,4870
412,554.47,18035.1,761.89,5213,10259,5046
413,554.53,18033.35,763.64,2696,7900,5204
414,554.58,18031.6,765.39,2658,7782,5124
415,554.64,18029.86,767.14,3020,8058,5038
416,554.69,18028.11,768.89,2840,7887,5047
417,554.74,18026.36,770.63,3103,8213,5110
418,554.8,18024.61,772.38,2859,8011,5152
419,554.85,18022.87,774.13,2687,7774,5087
420,554.9,18021.12,775.87,3057,8170,5113
421,554.96,18019.38,777.62,2760,8021,5261
422,555.01,18017.63,779.36,3012,8195,5183
423,555.07,18015.89,781.11,3873,9135,5262
424,555.12,18014.14,782.85,3669,8873,5204
425,555.17,18012.4,784.59,2692,8004,5312
426,555.23,18010.66,786.34,3110,8254,5144
427,555.28,18008.91,788.08,3399,8493,5094
428,555.33,18007.17,789.82,3259,8584,5325
429,555.39,18005.43,791.56,2969,8128,5159
430,555.44,18003.69,793.3,3173,8536,5363
431,555.5,18001.95,795.04,2847,8081,5234
432,555.55,18000.21,796.78,2917,8126,5209
433,555.6,17998.47,798.52,2987,8171,5184
434,555.66,17996.73,800.26,2701,7988,5287
435,555.71,17994.99,802,3445,8926,5481
436,555.76,17993.26,803.74,2934,8135,5201
437,555.82,17991.52,805.47,2775,8002,5227
438,555.87,17989.78,807.21,2580,8005,5425
439,555.92,17988.04,808.95,3726,8846,5120
440,555.98,17986.31,810.68,2625,8021,5396
441,556.03,17984.57,812.42,2634,7963,5329
442,556.09,17982.84,814.15,3239,8488,5249
443,556.14,17981.1,815.89,3382,8698,5316
444,556.19,17979.37,817.62,2806,8093,5287
445,556.25,17977.64,819.36,2793,8231,5438
446,556.3,17975.9,821.09,2835,8208,5373
447,556.35,17974.17,822.82,3659,8953,5294
448,556.41,17972.44,824.55,3438,8852,5414
449,556.46,17970.71,826.28,3262,8217,4955
450,556.51,17968.98,828.02,3320,8716,5396
451,556.57,17967.25,829.75,3223,8562,5339
452,556.62,17965.52,831.48,2924,8400,5476
453,556.68,17963.79,833.21,2754,8108,5354
454,556.73,17962.06,834.93,2833,7996,5163
455,556.78,17960.33,836.66,2825,8249,5424
456,556.84,17958.6,838.39,2942,8235,5293
457,556.89,17956.87,840.12,2622,7927,5305
458,556.94,17955.15,841.84,3063,8219,5156
459,557,17953.42,843.57,2984,8211,5227
460,557.05,17951.7,845.3,3070,8240,5170
461,557.1,17949.97,847.02,3183,8279,5096
462,557.16,17948.24,848.75,3441,8704,5263
463,557.21,17946.52,850.47,2926,8359,5433
464,557.26,17944.8,852.2,2700,7885,5185
465,557.32,17943.07,853.92,2423,7678,5255
466,557.37,17941.35,855.64,3602,8755,5153
467,557.43,17939.63,857.37,3020,8139,5119
468,557.48,17937.91,859.09,2688,8195,5507
469,557.53,17936.18,860.81,2835,7999,5164
470,557.59,17934.46,862.53,2926,8180,5254
471,557.64,17932.74,864.25,2502,7662,5160
472,557.69,17931.02,865.97,3026,8296,5270
473,557.75,17929.3,867.69,2521,7745,5224
474,557.8,17927.58,869.41,3234,8473,5239
475,557.85,17925.87,871.13,2405,7653,5248
476,557.91,17924.15,872.85,2991,8162,5171
477,557.96,17922.43,874.56,2451,7496,5045
478,558.01,17920.71,876.28,3143,8373,5230
479,558.07,17919,878,3187,8368,5181
480,558.12,17917.28,879.71,2957,7993,5036
481,558.17,17915.56,881.43,2684,7965,5281
482,558.23,17913.85,883.14,2541,7793,5252
483,558.28,17912.13,884.86,2883,7998,5115
484,558.33,17910.42,886.57,2979,8295,5316
485,558.39,17908.71,888.29,3875,8892,5017
486,558.44,17906.99,890,2786,8011,5225
487,558.49,17905.28,891.71,2631,8023,5392
488,558.55,17903.57,893.42,2935,8214,5279
489,558.6,17901.86,895.14,2912,8393,5481
490,558.65,17900.15,896.85,2786,7985,5199
491,558.71,17898.44,898.56,3014,8206,5192
492,558.76,17896.73,900.27,2938,8345,5407
493,558.81,17895.02,901.98,3145,8520,5375
494,558.87,17893.31,903.69,3113,8438,5325
495,558.92,17891.6,905.39,2756,8088,5332
496,558.97,17889.89,907.1,2923,8261,5338
497,559.03,17888.18,908.81,3299,8751,5452
498,559.08,17886.47,910.52,2758,8014,5256
499,559.14,17884.77,912.22,3178,8364,5186
500,559.19,17883.06,913.93,3294,8386,5092
501,559.24,17881.36,915.64,2743,8222,5479
502,559.3,17879.65,917.34,3327,8610,5283
503,559.35,17877.95,919.05,3307,8605,5298
504,559.4,17876.24,920.75,2868,8153,5285
505,559.46,17874.54,922.45,2644,8000,5356
506,559.51,17872.83,924.16,2818,8098,5280
507,559.56,17871.13,925.86,2752,8255,5503
508,559.61,17869.43,927.56,2824,8272,5448
509,559.67,17867.73,929.27,2698,8203,5505
510,559.72,17866.03,930.97,3861,9142,5281
511,559.77,17864.33,932.67,3146,8463,5317
512,559.83,17862.62,934.37,2557,7936,5379
513,559.88,17860.93,936.07,3156,8885,5729
514,559.93,17859.23,937.77,2938,8355,5417
515,559.99,17857.53,939.47,3362,8731,5369
516,560.04,17855.83,941.16,2879,8278,5399
517,560.09,17854.13,942.86,3363,8616,5253
518,560.15,17852.43,944.56,3118,8427,5309
519,560.2,17850.74,946.26,2708,8175,5467
520,560.25,17849.04,947.95,5305,10807,5502
521,560.31,17847.34,949.65,2955,8496,5541
522,560.36,17845.65,951.34,2684,7997,5313
523,560.41,17843.95,953.04,2873,8332,5459
524,560.47,17842.26,954.73,2947,8336,5389
525,560.52,17840.56,956.43,3162,8591,5429
526,560.57,17838.87,958.12,2827,8214,5387
527,560.63,17837.18,959.81,3604,8812,5208
528,560.68,17835.49,961.51,2598,8142,5544
529,560.73,17833.79,963.2,3119,8597,5478
530,560.79,17832.1,964.89,2945,8586,5641
531,560.84,17830.41,966.58,2629,8219,5590
532,560.89,17828.72,968.27,3029,8687,5658
533,560.95,17827.03,969.96,3096,8868,5772
534,561,17825.34,971.65,3198,8594,5396
535,561.05,17823.65,973.34,3071,8714,5643
536,561.11,17821.96,975.03,2665,8053,5388
537,561.16,17820.27,976.72,3888,9345,5457
538,561.21,17818.59,978.41,5316,10832,5516
539,561.26,17816.9,980.09,3154,8843,5689
540,561.32,17815.21,981.78,2731,8343,5612
541,561.37,17813.53,983.47,3006,8626,5620
542,561.42,17811.84,985.15,3317,9090,5773
543,561.48,17810.16,986.84,2695,8523,5828
544,561.53,17808.47,988.52,2618,8331,5713
545,561.58,17806.79,990.21,2367,8005,5638
546,561.64,17805.1,991.89,2749,8252,5503
547,561.69,17803.42,993.57,3003,8726,5723
548,561.74,17801.74,995.26,2851,8569,5718
549,561.8,17800.05,996.94,2695,8272,5577
550,561.85,17798.37,998.62,3072,8750,5678
551,561.9,17796.69,1000.3,3280,8874,5594
552,561.96,17795.01,1001.98,3297,9031,5734
553,562.01,17793.33,1003.66,2607,8313,5706
554,562.06,17791.65,1005.34,2922,8759,5837
555,562.11,17789.97,1007.02,2628,8693,6065
556,562.17,17788.29,1008.7,2903,8926,6023
557,562.22,17786.61,1010.38,2577,8518,5941
558,562.27,17784.94,1012.06,2945,8654,5709
559,562.33,17783.26,1013.73,3241,9131,5890
560,562.38,17781.58,1015.41,3024,8795,5771
561,562.43,17779.9,1017.09,3011,8885,5874
562,562.49,17778.23,1018.76,3377,9392,6015
563,562.54,17776.55,1020.44,3348,9326,5978
564,562.59,17774.88,1022.11,4002,9965,5963
565,562.64,17773.2,1023.79,3900,9849,5949
566,562.7,17771.53,1025.46,2885,8934,6049
567,562.75,17769.86,1027.14,3009,9244,6235
568,562.8,17768.18,1028.81,3288,9350,6062
569,562.86,17766.51,1030.48,3603,10033,6430
570,562.91,17764.84,1032.16,2492,8737,6245
571,562.96,17763.17,1033.83,2812,9080,6268
572,563.02,17761.49,1035.5,3143,9266,6123
573,563.07,17759.82,1037.17,2646,9066,6420
574,563.12,17758.15,1038.84,3349,9726,6377
575,563.17,17756.48,1040.51,2704,8997,6293
576,563.23,17754.81,1042.18,2483,8863,6380
577,563.28,17753.15,1043.85,3359,9569,6210
578,563.33,17751.48,1045.52,3273,9589,6316
579,563.39,17749.81,1047.18,3496,9983,6487
580,563.44,17748.14,1048.85,2883,9370,6487
581,563.49,17746.48,1050.52,3583,10273,6690
582,563.55,17744.81,1052.18,3253,9884,6631
583,563.6,17743.14,1053.85,3439,10336,6897
584,563.65,17741.48,1055.51,3020,9742,6722
585,563.7,17739.81,1057.18,2785,9653,6868
586,563.76,17738.15,1058.84,2841,9970,7129
587,563.81,17736.48,1060.51,3014,9834,6820
588,563.86,17734.82,1062.17,2363,9367,7004
589,563.92,17733.16,1063.83,2716,9681,6965
590,563.97,17731.5,1065.5,2667,9560,6893
591,564.02,17729.83,1067.16,3056,9884,6828
592,564.07,17728.17,1068.82,2393,9271,6878
593,564.13,17726.51,1070.48,3089,10205,7116
594,564.18,17724.85,1072.14,2847,9727,6880
595,564.23,17723.19,1073.8,3092,10073,6981
596,564.29,17721.53,1075.46,3084,10120,7036
597,564.34,17719.87,1077.12,3670,10745,7075
598,564.39,17718.21,1078.78,2790,9839,7049
599,564.44,17716.55,1080.44,2132,9295,7163
600,564.5,17714.9,1082.1,3557,10622,7065
601,564.55,17713.24,1083.75,2334,9547,7213
602,564.6,17711.58,1085.41,3119,10105,6986
603,564.66,17709.93,1087.07,2907,9961,7054
604,564.71,17708.27,1088.72,2986,10077,7091
605,564.76,17706.61,1090.38,3199,10543,7344
606,564.81,17704.96,1092.03,2775,10073,7298
607,564.87,17703.31,1093.69,3388,10495,7107
608,564.92,17701.65,1095.34,3063,10210,7147
609,564.97,17700,1096.99,2806,10101,7295
610,565.02,17698.35,1098.65,3335,10623,7288
611,565.08,17696.69,1100.3,2501,9377,6876
612,565.13,17695.04,1101.95,2412,9644,7232
613,565.18,17693.39,1103.6,2995,10355,7360
614,565.24,17691.74,1105.25,2962,10523,7561
615,565.29,17690.09,1106.9,2799,10165,7366
616,565.34,17688.44,1108.55,2858,10128,7270
617,565.39,17686.79,1110.2,2676,10048,7372
618,565.45,17685.14,1111.85,3312,10679,7367
619,565.5,17683.49,1113.5,3761,11085,7324
620,565.55,17681.84,1115.15,2498,9719,7221
621,565.6,17680.19,1116.8,3195,10467,7272
622,565.66,17678.55,1118.45,2576,10060,7484
623,565.71,17676.9,1120.09,2660,9935,7275
624,565.76,17675.25,1121.74,2658,10127,7469
625,565.82,17673.61,1123.38,2706,10067,7361
626,565.87,17671.96,1125.03,3059,10304,7245
627,565.92,17670.32,1126.67,2839,10346,7507
628,565.97,17668.67,1128.32,2836,10136,7300
629,566.03,17667.03,1129.96,2905,10572,7667
630,566.08,17665.39,1131.61,3227,10615,7388
631,566.13,17663.74,1133.25,2287,9770,7483
632,566.18,17662.1,1134.89,2694,10331,7637
633,566.24,17660.46,1136.53,3268,10626,7358
634,566.29,17658.82,1138.17,2998,10535,7537
635,566.34,17657.18,1139.82,3008,10576,7568
636,566.39,17655.54,1141.46,2546,10183,7637
637,566.45,17653.9,1143.1,2482,10333,7851
638,566.5,17652.26,1144.74,3043,10576,7533
639,566.55,17650.62,1146.37,3098,10485,7387
640,566.61,17648.98,1148.01,2961,10426,7465
641,566.66,17647.34,1149.65,2252,10011,7759
642,566.71,17645.7,1151.29,2557,10187,7630
643,566.76,17644.07,1152.93,2800,10362,7562
644,566.82,17642.43,1154.56,3093,10635,7542
645,566.87,17640.79,1156.2,3093,10748,7655
646,566.92,17639.16,1157.84,3692,11350,7658
647,566.97,17637.52,1159.47,2721,10497,7776
648,567.03,17635.89,1161.11,3084,10798,7714
649,567.08,17634.25,1162.74,3125,10753,7628
650,567.13,17632.62,1164.37,2852,10785,7933
651,567.18,17630.99,1166.01,3069,10917,7848
652,567.24,17629.35,1167.64,2987,10936,7949
653,567.29,17627.72,1169.27,2607,10459,7852
654,567.34,17626.09,1170.9,2682,10460,7778
655,567.39,17624.46,1172.54,2312,10131,7819
656,567.45,17622.83,1174.17,2421,10279,7858
657,567.5,17621.2,1175.8,3354,11359,8005
658,567.55,17619.57,1177.43,2526,10348,7822
659,567.6,17617.94,1179.06,2322,10667,8345
660,567.66,17616.31,1180.69,3272,11246,7974
661,567.71,17614.68,1182.31,2565,10678,8113
662,567.76,17613.05,1183.94,3265,11256,7991
663,567.81,17611.42,1185.57,2682,10827,8145
664,567.87,17609.79,1187.2,2990,11081,8091
665,567.92,17608.17,1188.82,2859,11200,8341
666,567.97,17606.54,1190.45,2776,10992,8216
667,568.02,17604.92,1192.08,2787,11121,8334
668,568.08,17603.29,1193.7,2402,10742,8340
669,568.13,17601.67,1195.33,2436,10791,8355
670,568.18,17600.04,1196.95,2691,11077,8386
671,568.23,17598.42,1198.58,2717,11236,8519
672,568.29,17596.79,1200.2,2570,11168,8598
673,568.34,17595.17,1201.82,2819,11491,8672
674,568.39,17593.55,1203.44,3363,11702,8339
675,568.44,17591.93,1205.07,3304,11942,8638
676,568.5,17590.3,1206.69,3240,11765,8525
677,568.55,17588.68,1208.31,2783,11409,8626
678,568.6,17587.06,1209.93,2714,11424,8710
679,568.65,17585.44,1211.55,2606,11430,8824
680,568.7,17583.82,1213.17,2800,11591,8791
681,568.76,17582.2,1214.79,3370,12156,8786
682,568.81,17580.58,1216.41,2995,11424,8429
683,568.86,17578.97,1218.03,2649,10957,8308
684,568.91,17577.35,1219.64,3931,12588,8657
685,568.97,17575.73,1221.26,2866,11597,8731
686,569.02,17574.11,1222.88,2414,11185,8771
687,569.07,17572.5,1224.49,2634,11436,8802
688,569.12,17570.88,1226.11,2614,11312,8698
689,569.18,17569.27,1227.73,2874,11808,8934
690,569.23,17567.65,1229.34,2870,11749,8879
691,569.28,17566.04,1230.96,2852,11750,8898
692,569.33,17564.42,1232.57,2449,11326,8877
693,569.38,17562.81,1234.18,2736,11851,9115
694,569.44,17561.2,1235.8,3232,12359,9127
695,569.49,17559.58,1237.41,2758,11803,9045
696,569.54,17557.97,1239.02,2768,11756,8988
697,569.59,17556.36,1240.63,2474,11804,9330
698,569.65,17554.75,1242.24,2669,11926,9257
699,569.7,17553.14,1243.85,3282,12627,9345
700,569.75,17551.53,1245.47,2873,12213,9340
701,569.8,17549.92,1247.08,2678,11949,9271
702,569.86,17548.31,1248.68,3042,12544,9502
703,569.91,17546.7,1250.29,3745,13451,9706
704,569.96,17545.09,1251.9,3376,12847,9471
705,570.01,17543.48,1253.51,3219,12968,9749
706,570.06,17541.88,1255.12,2812,12142,9330
707,570.12,17540.27,1256.72,2678,12107,9429
708,570.17,17538.66,1258.33,3950,13415,9465
709,570.22,17537.06,1259.94,2657,12247,9590
710,570.27,17535.45,1261.54,3247,13144,9897
711,570.33,17533.84,1263.15,2964,12835,9871
712,570.38,17532.24,1264.75,3329,13331,10002
713,570.43,17530.64,1266.36,2438,12490,10052
714,570.48,17529.03,1267.96,4724,14766,10042
715,570.53,17527.43,1269.56,3328,13249,9921
716,570.59,17525.83,1271.17,2909,13337,10428
717,570.64,17524.22,1272.77,2964,13274,10310
718,570.69,17522.62,1274.37,2559,12680,10121
719,570.74,17521.02,1275.97,3005,13531,10526
720,570.8,17519.42,1277.57,3030,13630,10600
721,570.85,17517.82,1279.17,2581,13432,10851
722,570.9,17516.22,1280.77,3287,14060,10773
723,570.95,17514.62,1282.37,3169,13950,10781
724,571,17513.02,1283.97,3079,14279,11200
725,571.06,17511.42,1285.57,2829,13971,11142
726,571.11,17509.82,1287.17,2525,13569,11044
727,571.16,17508.23,1288.77,2733,14175,11442
728,571.21,17506.63,1290.36,3535,15427,11892
729,571.26,17505.03,1291.96,2738,14184,11446
730,571.32,17503.44,1293.56,2756,14910,12154
731,571.37,17501.84,1295.15,3374,15346,11972
732,571.42,17500.24,1296.75,2889,15242,12353
733,571.47,17498.65,1298.34,3350,15960,12610
734,571.52,17497.06,1299.94,2260,14766,12506
735,571.58,17495.46,1301.53,2900,15694,12794
736,571.63,17493.87,1303.12,2865,16079,13214
737,571.68,17492.27,1304.72,2667,16063,13396
738,571.73,17490.68,1306.31,3375,17415,14040
739,571.79,17489.09,1307.9,2542,16659,14117
740,571.84,17487.5,1309.49,2391,16735,14344
741,571.89,17485.91,1311.09,2569,17019,14450
742,571.94,17484.32,1312.68,2386,17360,14974
743,571.99,17482.73,1314.27,3168,18450,15282
744,572.05,17481.14,1315.86,3283,18922,15639
745,572.1,17479.55,1317.45,2466,18759,16293
746,572.15,17477.96,1319.03,3122,19506,16384
747,572.2,17476.37,1320.62,2922,19615,16693
748,572.25,17474.78,1322.21,2788,19901,17113
749,572.31,17473.19,1323.8,2511,20135,17624
750,572.36,17471.61,1325.38,2752,20462,17710
751,572.41,17470.02,1326.97,2559,20991,18432
752,572.46,17468.44,1328.56,3123,21947,18824
753,572.51,17466.85,1330.14,3058,22048,18990
754,572.57,17465.26,1331.73,3304,22317,19013
755,572.62,17463.68,1333.31,2540,22080,19540
756,572.67,17462.1,1334.9,2985,22822,19837
757,572.72,17460.51,1336.48,2477,22295,19818
758,572.77,17458.93,1338.06,2949,23089,20140
759,572.82,17457.35,1339.65,2461,22359,19898
760,572.88,17455.76,1341.23,2709,22681,19972
761,572.93,17454.18,1342.81,2696,22610,19914
762,572.98,17452.6,1344.39,3123,22781,19658
763,573.03,17451.02,1345.97,2575,22636,20061
764,573.08,17449.44,1347.55,2478,22148,19670
765,573.14,17447.86,1349.13,2754,22152,19398
766,573.19,17446.28,1350.71,2929,22146,19217
767,573.24,17444.7,1352.29,5294,24037,18743
768,573.29,17443.12,1353.87,2716,21144,18428
769,573.34,17441.54,1355.45,3034,21298,18264
770,573.4,17439.97,1357.03,2994,20630,17636
771,573.45,17438.39,1358.6,2794,20333,17539
772,573.5,17436.81,1360.18,2867,20272,17405
773,573.55,17435.23,1361.76,2960,19666,16706
774,573.6,17433.66,1363.33,3124,19386,16262
775,573.65,17432.08,1364.91,3121,19291,16170
776,573.71,17430.51,1366.48,2951,18728,15777
777,573.76,17428.93,1368.06,2712,17629,14917
778,573.81,17427.36,1369.63,2635,17546,14911
779,573.86,17425.79,1371.21,4088,18580,14492
780,573.91,17424.21,1372.78,2534,17085,14551
781,573.97,17422.64,1374.35,2761,16815,14054
782,574.02,17421.07,1375.92,2437,16237,13800
783,574.07,17419.5,1377.5,2309,15876,13567
784,574.12,17417.93,1379.07,2493,15843,13350
785,574.17,17416.35,1380.64,2729,15856,13127
786,574.22,17414.78,1382.21,2843,15649,12806
787,574.28,17413.21,1383.78,2885,15530,12645
788,574.33,17411.65,1385.35,2442,15074,12632
789,574.38,17410.08,1386.92,2772,15476,12704
790,574.43,17408.51,1388.48,3563,15729,12166
791,574.48,17406.94,1390.05,2862,14627,11765
792,574.54,17405.37,1391.62,2709,14621,11912
793,574.59,17403.8,1393.19,2640,14382,11742
794,574.64,17402.24,1394.75,2757,14506,11749
795,574.69,17400.67,1396.32,2917,14569,11652
796,574.74,17399.11,1397.89,2748,14023,11275
797,574.79,17397.54,1399.45,3443,14737,11294
798,574.85,17395.98,1401.02,2488,13703,11215
799,574.9,17394.41,1402.58,3722,15032,11310
800,574.95,17392.85,1404.14,2691,13866,11175
801,575,17391.28,1405.71,3107,14151,11044
802,575.05,17389.72,1407.27,2590,13177,10587
803,575.1,17388.16,1408.83,2212,13406,11194
804,575.16,17386.6,1410.4,2485,13545,11060
805,575.21,17385.04,1411.96,2867,13739,10872
806,575.26,17383.47,1413.52,2740,13505,10765
807,575.31,17381.91,1415.08,2697,13770,11073
808,575.36,17380.35,1416.64,2915,13768,10853
809,575.41,17378.79,1418.2,2751,13460,10709
810,575.47,17377.23,1419.76,2982,13366,10384
811,575.52,17375.67,1421.32,2714,13186,10472
812,575.57,17374.12,1422.88,2508,12987,10479
813,575.62,17372.56,1424.43,2582,12921,10339
814,575.67,17371,1425.99,3326,13848,10522
815,575.72,17369.44,1427.55,2975,13341,10366
816,575.78,17367.89,1429.11,2553,12849,10296
817,575.83,17366.33,1430.66,2666,13003,10337
818,575.88,17364.78,1432.22,2663,12935,10272
819,575.93,17363.22,1433.77,2906,13335,10429
820,575.98,17361.67,1435.33,2617,13123,10506
821,576.03,17360.11,1436.88,2791,13221,10430
822,576.08,17358.56,1438.44,3287,13651,10364
823,576.14,17357,1439.99,3645,13819,10174
824,576.19,17355.45,1441.54,3055,13220,10165
825,576.24,17353.9,1443.09,3013,13331,10318
826,576.29,17352.35,1444.65,2913,13338,10425
827,576.34,17350.79,1446.2,2962,13304,10342
828,576.39,17349.24,1447.75,2552,12497,9945
829,576.45,17347.69,1449.3,2822,13067,10245
830,576.5,17346.14,1450.85,2907,13186,10279
831,576.55,17344.59,1452.4,2566,12909,10343
832,576.6,17343.04,1453.95,2860,13109,10249
833,576.65,17341.5,1455.5,2837,13140,10303
834,576.7,17339.95,1457.05,2148,12601,10453
835,576.75,17338.4,1458.59,2855,13246,10391
836,576.81,17336.85,1460.14,3405,13601,10196
837,576.86,17335.3,1461.69,2779,13197,10418
838,576.91,17333.76,1463.23,3068,13270,10202
839,576.96,17332.21,1464.78,2909,13125,10216
840,577.01,17330.67,1466.33,2666,13132,10466
841,577.06,17329.12,1467.87,2608,12894,10286
842,577.11,17327.58,1469.42,2463,12812,10349
843,577.17,17326.03,1470.96,3327,13528,10201
844,577.22,17324.49,1472.5,3048,13535,10487
845,577.27,17322.94,1474.05,2495,12800,10305
846,577.32,17321.4,1475.59,2990,13378,10388
847,577.37,17319.86,1477.13,2717,13167,10450
848,577.42,17318.32,1478.68,2476,12712,10236
849,577.47,17316.78,1480.22,4405,14834,10429
850,577.53,17315.23,1481.76,2449,12671,10222
851,577.58,17313.69,1483.3,2441,12723,10282
852,577.63,17312.15,1484.84,2630,13125,10495
853,577.68,17310.61,1486.38,2891,13275,10384
854,577.73,17309.07,1487.92,2619,13051,10432
855,577.78,17307.54,1489.46,3239,13627,10388
856,577.83,17306,1491,2775,13195,10420
857,577.89,17304.46,1492.53,2667,13304,10637
858,577.94,17302.92,1494.07,3018,13376,10358
859,577.99,17301.38,1495.61,2320,12717,10397
860,578.04,17299.85,1497.14,3271,13765,10494
861,578.09,17298.31,1498.68,2587,13224,10637
862,578.14,17296.78,1500.22,3536,13930,10394
863,578.19,17295.24,1501.75,4150,14676,10526
864,578.25,17293.71,1503.29,2639,13206,10567
865,578.3,17292.17,1504.82,2756,13490,10734
866,578.35,17290.64,1506.35,3237,14170,10933
867,578.4,17289.1,1507.89,2387,13214,10827
868,578.45,17287.57,1509.42,3296,14280,10984
869,578.5,17286.04,1510.95,2828,13447,10619
870,578.55,17284.51,1512.49,2462,13065,10603
871,578.6,17282.98,1514.02,3233,14166,10933
872,578.66,17281.44,1515.55,2742,13771,11029
873,578.71,17279.91,1517.08,2804,14298,11494
874,578.76,17278.38,1518.61,2570,13931,11361
875,578.81,17276.85,1520.14,3322,14486,11164
876,578.86,17275.32,1521.67,2298,13665,11367
877,578.91,17273.8,1523.2,2698,14188,11490
878,578.96,17272.27,1524.73,3027,14415,11388
879,579.01,17270.74,1526.25,2940,14429,11489
880,579.07,17269.21,1527.78,2859,14728,11869
881,579.12,17267.68,1529.31,2636,14504,11868
882,579.17,17266.16,1530.83,2564,14390,11826
883,579.22,17264.63,1532.36,3398,15423,12025
884,579.27,17263.11,1533.89,2985,15574,12589
885,579.32,17261.58,1535.41,2763,14951,12188
886,579.37,17260.06,1536.94,2666,15232,12566
887,579.42,17258.53,1538.46,2524,15185,12661
888,579.47,17257.01,1539.98,2684,15591,12907
889,579.53,17255.48,1541.51,3071,16314,13243
890,579.58,17253.96,1543.03,2663,15742,13079
891,579.63,17252.44,1544.55,2830,16680,13850
892,579.68,17250.92,1546.08,3242,17168,13926
893,579.73,17249.39,1547.6,2622,16826,14204
894,579.78,17247.87,1549.12,3039,17659,14620
895,579.83,17246.35,1550.64,2826,17582,14756
896,579.88,17244.83,1552.16,2725,18131,15406
897,579.93,17243.31,1553.68,2947,18566,15619
898,579.99,17241.79,1555.2,2979,19294,16315
899,580.04,17240.27,1556.72,2175,18823,16648
900,580.09,17238.76,1558.24,2426,19131,16705
901,580.14,17237.24,1559.76,3085,19754,16669
902,580.19,17235.72,1561.27,2712,19663,16951
903,580.24,17234.2,1562.79,2879,20239,17360
904,580.29,17232.69,1564.31,2708,20346,17638
905,580.34,17231.17,1565.82,2331,20073,17742
906,580.39,17229.65,1567.34,2334,20338,18004
907,580.45,17228.14,1568.85,2575,21127,18552
908,580.5,17226.62,1570.37,2602,21232,18630
909,580.55,17225.11,1571.88,2786,20984,18198
910,580.6,17223.59,1573.4,3927,22417,18490
911,580.65,17222.08,1574.91,2786,21389,18603
912,580.7,17220.57,1576.42,2487,21130,18643
913,580.75,17219.06,1577.94,2634,21402,18768
914,580.8,17217.54,1579.45,2562,20887,18325
915,580.85,17216.03,1580.96,2807,21431,18624
916,580.9,17214.52,1582.47,2712,20970,18258
917,580.96,17213.01,1583.98,2675,20441,17766
918,581.01,17211.5,1585.49,5070,23065,17995
919,581.06,17209.99,1587,3006,20825,17819
920,581.11,17208.48,1588.51,2646,20374,17728
921,581.16,17206.97,1590.02,2549,19899,17350
922,581.21,17205.46,1591.53,2695,19569,16874
923,581.26,17203.95,1593.04,2871,20259,17388
924,581.31,17202.44,1594.55,2421,19361,16940
925,581.36,17200.94,1596.06,2975,19618,16643
926,581.41,17199.43,1597.56,3187,19676,16489
927,581.47,17197.92,1599.07,2828,19123,16295
928,581.52,17196.42,1600.57,2165,18643,16478
929,581.57,17194.91,1602.08,2811,18806,15995
930,581.62,17193.41,1603.59,2596,18716,16120
931,581.67,17191.9,1605.09,3030,19225,16195
932,581.72,17190.4,1606.59,2696,18519,15823
933,581.77,17188.89,1608.1,2581,18061,15480
934,581.82,17187.39,1609.6,2846,18333,15487
935,581.87,17185.89,1611.1,2810,18039,15229
936,581.92,17184.39,1612.61,2498,17608,15110
937,581.97,17182.88,1614.11,2907,17400,14493
938,582.03,17181.38,1615.61,2615,17450,14835
939,582.08,17179.88,1617.11,2433,16559,14126
940,582.13,17178.38,1618.61,2555,16561,14006
941,582.18,17176.88,1620.11,2634,16110,13476
942,582.23,17175.38,1621.61,2915,16195,13280
943,582.28,17173.88,1623.11,2549,15269,12720
944,582.33,17172.38,1624.61,2867,15553,12686
945,582.38,17170.88,1626.11,2869,15281,12412
946,582.43,17169.39,1627.61,2891,15043,12152
947,582.48,17167.89,1629.1,2500,14407,11907
948,582.53,17166.39,1630.6,2782,14309,11527
949,582.58,17164.89,1632.1,3881,15442,11561
950,582.64,17163.4,1633.59,2972,14040,11068
951,582.69,17161.9,1635.09,3205,14285,11080
952,582.74,17160.41,1636.59,2614,13307,10693
953,582.79,17158.91,1638.08,2647,13688,11041
954,582.84,17157.42,1639.57,3505,13860,10355
955,582.89,17155.92,1641.07,3322,13538,10216
956,582.94,17154.43,1642.56,2912,13283,10371
957,582.99,17152.94,1644.06,3120,13258,10138
958,583.04,17151.44,1645.55,2768,12619,9851
959,583.09,17149.95,1647.04,2800,12738,9938
960,583.14,17148.46,1648.53,2282,12101,9819
961,583.19,17146.97,1650.02,2529,12498,9969
962,583.24,17145.48,1651.51,2234,11755,9521
963,583.29,17143.99,1653,2426,11933,9507
964,583.35,17142.5,1654.49,2818,12534,9716
965,583.4,17141.01,1655.98,3004,12328,9324
966,583.45,17139.52,1657.47,2778,12020,9242
967,583.5,17138.03,1658.96,2887,12064,9177
968,583.55,17136.54,1660.45,2512,11465,8953
969,583.6,17135.05,1661.94,3057,11963,8906
970,583.65,17133.57,1663.43,2928,11912,8984
971,583.7,17132.08,1664.91,2866,11970,9104
972,583.75,17130.59,1666.4,2519,11506,8987
973,583.8,17129.11,1667.88,3122,12020,8898
974,583.85,17127.62,1669.37,2693,11650,8957
975,583.9,17126.14,1670.86,2958,11731,8773
976,583.95,17124.65,1672.34,3060,12024,8964
977,584,17123.17,1673.82,2624,11518,8894
978,584.05,17121.68,1675.31,2524,11482,8958
979,584.11,17120.2,1676.79,2655,11458,8803
980,584.16,17118.72,1678.27,2891,11662,8771
981,584.21,17117.24,1679.76,2873,11726,8853
982,584.26,17115.75,1681.24,2912,11641,8729
983,584.31,17114.27,1682.72,2822,11671,8849
984,584.36,17112.79,1684.2,2635,11162,8527
985,584.41,17111.31,1685.68,2907,11239,8332
986,584.46,17109.83,1687.16,2343,10763,8420
987,584.51,17108.35,1688.64,2709,11486,8777
988,584.56,17106.87,1690.12,2868,11298,8430
989,584.61,17105.39,1691.6,2950,11447,8497
990,584.66,17103.91,1693.08,2608,11272,8664
991,584.71,17102.43,1694.56,3418,11866,8448
992,584.76,17100.96,1696.04,3101,11527,8426
993,584.81,17099.48,1697.51,3233,11519,8286
994,584.86,17098,1698.99,3573,12205,8632
995,584.91,17096.53,1700.47,2758,11067,8309
996,584.96,17095.05,1701.94,3091,11639,8548
997,585.02,17093.58,1703.42,2587,10946,8359
998,585.07,17092.1,1704.89,2641,11346,8705
999,585.12,17090.63,1706.37,2802,11202,8400
1000,585.17,17089.15,1707.84,2710,11262,8552
1001,585.22,17087.68,1709.31,2665,11237,8572
1002,585.27,17086.2,1710.79,2835,11236,8401
1003,585.32,17084.73,1712.26,2797,11138,8341
1004,585.37,17083.26,1713.73,2569,10999,8430
1005,585.42,17081.79,1715.2,2620,11133,8513
1006,585.47,17080.32,1716.68,2435,10905,8470
1007,585.52,17078.85,1718.15,3024,11555,8531
1008,585.57,17077.37,1719.62,3340,11666,8326
1009,585.62,17075.9,1721.09,2601,10874,8273
1010,585.67,17074.43,1722.56,2406,10737,8331
1011,585.72,17072.97,1724.03,2521,10681,8160
1012,585.77,17071.5,1725.5,2698,10991,8293
1013,585.82,17070.03,1726.96,2423,10676,8253
1014,585.87,17068.56,1728.43,2754,11130,8376
1015,585.92,17067.09,1729.9,2528,10963,8435
1016,585.97,17065.63,1731.37,3005,11556,8551
1017,586.02,17064.16,1732.83,2944,10934,7990
1018,586.07,17062.69,1734.3,3083,11513,8430
1019,586.12,17061.23,1735.77,3008,11030,8022
1020,586.17,17059.76,1737.23,3186,11544,8358
1021,586.23,17058.3,1738.7,2642,10720,8078
1022,586.28,17056.83,1740.16,2626,11068,8442
1023,586.33,17055.37,1741.62,2643,10817,8174
1024,586.38,17053.9,1743.09,2881,11111,8230
1025,586.43,17052.44,1744.55,3434,11584,8150
1026,586.48,17050.98,1746.01,2445,10587,8142
1027,586.53,17049.52,1747.48,2503,10648,8145
1028,586.58,17048.05,1748.94,2491,10720,8229
1029,586.63,17046.59,1750.4,2809,11122,8313
1030,586.68,17045.13,1751.86,2225,10445,8220
1031,586.73,17043.67,1753.32,3094,11362,8268
1032,586.78,17042.21,1754.78,2569,10756,8187
1033,586.83,17040.75,1756.24,2712,10939,8227
1034,586.88,17039.29,1757.7,3112,11445,8333
1035,586.93,17037.83,1759.16,2910,11052,8142
1036,586.98,17036.37,1760.62,3384,11632,8248
1037,587.03,17034.92,1762.08,2222,10587,8365
1038,587.08,17033.46,1763.53,2307,10434,8127
1039,587.13,17032,1764.99,2641,10902,8261
1040,587.18,17030.55,1766.45,2925,11170,8245
1041,587.23,17029.09,1767.9,3107,11354,8247
1042,587.28,17027.63,1769.36,2715,10960,8245
1043,587.33,17026.18,1770.81,2595,10744,8149
1044,587.38,17024.72,1772.27,2932,11217,8285
1045,587.43,17023.27,1773.72,3028,11155,8127
1046,587.48,17021.82,1775.18,3131,11278,8147
1047,587.53,17020.36,1776.63,2709,10810,8101
1048,587.58,17018.91,1778.08,2164,10300,8136
1049,587.63,17017.46,1779.54,2464,10707,8243
1050,587.68,17016,1780.99,2238,10338,8100
1051,587.73,17014.55,1782.44,2678,11001,8323
1052,587.78,17013.1,1783.89,3159,11473,8314
1053,587.83,17011.65,1785.34,2628,10754,8126
1054,587.88,17010.2,1786.79,2721,10779,8058
1055,587.93,17008.75,1788.24,3456,11448,7992
1056,587.98,17007.3,1789.69,3003,10955,7952
1057,588.03,17005.85,1791.14,2668,10840,8172
1058,588.08,17004.4,1792.59,2208,10593,8385
1059,588.13,17002.95,1794.04,2417,10532,8115
1060,588.18,17001.5,1795.49,3398,11753,8355
1061,588.23,17000.06,1796.94,3232,11381,8149
1062,588.28,16998.61,1798.38,2803,10844,8041
1063,588.33,16997.16,1799.83,3233,11356,8123
1064,588.38,16995.72,1801.28,2700,10880,8180
1065,588.43,16994.27,1802.72,2522,10647,8125
1066,588.48,16992.83,1804.17,2604,10740,8136
1067,588.53,16991.38,1805.61,2614,10644,8030
1068,588.58,16989.94,1807.06,2384,10460,8076
1069,588.63,16988.49,1808.5,2571,10754,8183
1070,588.68,16987.05,1809.94,2793,10832,8039
1071,588.73,16985.61,1811.39,2908,11039,8131
1072,588.78,16984.16,1812.83,2970,11038,8068
1073,588.83,16982.72,1814.27,2469,10741,8272
1074,588.88,16981.28,1815.71,2662,10950,8288
1075,588.93,16979.84,1817.16,3571,11884,8313
1076,588.98,16978.4,1818.6,3764,11992,8228
1077,589.03,16976.96,1820.04,3347,11461,8114
1078,589.08,16975.52,1821.48,2633,10819,8186
1079,589.13,16974.08,1822.92,2927,10930,8003
1080,589.18,16972.64,1824.36,3179,11201,8022
1081,589.23,16971.2,1825.79,2938,10999,8061
1082,589.28,16969.76,1827.23,3072,11407,8335
1083,589.33,16968.32,1828.67,2807,10875,8068
1084,589.38,16966.88,1830.11,2762,10924,8162
1085,589.43,16965.45,1831.55,2363,10466,8103
1086,589.48,16964.01,1832.98,2696,10866,8170
1087,589.53,16962.57,1834.42,2771,11035,8264
1088,589.58,16961.14,1835.85,2487,10756,8269
1089,589.63,16959.7,1837.29,3175,11611,8436
1090,589.68,16958.27,1838.72,2559,10854,8295
1091,589.73,16956.83,1840.16,2343,10412,8069
1092,589.78,16955.4,1841.59,2744,11109,8365
1093,589.83,16953.97,1843.03,2737,11135,8398
1094,589.88,16952.53,1844.46,2591,10838,8247
1095,589.93,16951.1,1845.89,3002,11342,8340
1096,589.98,16949.67,1847.33,2433,10810,8377
1097,590.03,16948.24,1848.76,2677,10767,8090
1098,590.08,16946.8,1850.19,2517,10661,8144
1099,590.13,16945.37,1851.62,2624,10540,7916
1100,590.18,16943.94,1853.05,2911,11090,8179
1101,590.23,16942.51,1854.48,2454,10732,8278
1102,590.28,16941.08,1855.91,2401,10490,8089
1103,590.33,16939.65,1857.34,3230,11313,8083
1104,590.38,16938.22,1858.77,3034,11177,8143
1105,590.43,16936.8,1860.2,3070,11271,8201
1106,590.48,16935.37,1861.63,2629,10748,8119
1107,590.53,16933.94,1863.05,2903,11162,8259
1108,590.58,16932.51,1864.48,3328,11457,8129
1109,590.63,16931.09,1865.91,3267,11621,8354
1110,590.68,16929.66,1867.33,3261,11410,8149
1111,590.73,16928.23,1868.76,2794,10787,7993
1112,590.78,16926.81,1870.18,2991,10873,7882
1113,590.83,16925.38,1871.61,2964,11050,8086
1114,590.88,16923.96,1873.03,2674,10928,8254
1115,590.93,16922.53,1874.46,4520,12863,8343
1116,590.98,16921.11,1875.88,2918,11103,8185
1117,591.03,16919.69,1877.31,2651,10736,8085
1118,591.08,16918.26,1878.73,2966,11105,8139
1119,591.13,16916.84,1880.15,3289,11622,8333
1120,591.18,16915.42,1881.57,3329,11481,8152
1121,591.23,16914,1883,2527,10552,8025
1122,591.28,16912.58,1884.42,2885,10943,8058
1123,591.33,16911.16,1885.84,3137,11387,8250
1124,591.38,16909.74,1887.26,3118,11254,8136
1125,591.42,16908.32,1888.68,2387,10644,8257
1126,591.47,16906.9,1890.1,2863,11066,8203
1127,591.52,16905.48,1891.52,2651,10975,8324
1128,591.57,16904.06,1892.93,2767,11179,8412
1129,591.62,16902.64,1894.35,2321,10579,8258
1130,591.67,16901.22,1895.77,2827,10920,8093
1131,591.72,16899.8,1897.19,3276,11498,8222
1132,591.77,16898.39,1898.6,2840,10947,8107
1133,591.82,16896.97,1900.02,2692,10632,7940
1134,591.87,16895.56,1901.44,2429,10446,8017
1135,591.92,16894.14,1902.85,2659,11089,8430
1136,591.97,16892.72,1904.27,2737,10862,8125
1137,592.02,16891.31,1905.68,2721,10933,8212
1138,592.07,16889.9,1907.1,2951,11071,8120
1139,592.12,16888.48,1908.51,2852,11060,8208
1140,592.17,16887.07,1909.92,2343,10496,8153
1141,592.22,16885.65,1911.34,2941,11022,8081
1142,592.27,16884.24,1912.75,2574,11015,8441
1143,592.32,16882.83,1914.16,2577,10762,8185
1144,592.37,16881.42,1915.57,2514,10806,8292
1145,592.42,16880.01,1916.99,3319,11574,8255
1146,592.47,16878.6,1918.4,2758,10702,7944
1147,592.52,16877.18,1919.81,3586,11705,8119
1148,592.57,16875.77,1921.22,2476,10707,8231
1149,592.61,16874.37,1922.63,2930,11168,8238
1150,592.66,16872.96,1924.04,2525,10568,8043
1151,592.71,16871.55,1925.45,3068,11041,7973
1152,592.76,16870.14,1926.85,3240,11284,8044
1153,592.81,16868.73,1928.26,2659,10623,7964
1154,592.86,16867.32,1929.67,2876,10957,8081
1155,592.91,16865.92,1931.08,3078,10864,7786
1156,592.96,16864.51,1932.48,2449,10294,7845
1157,593.01,16863.1,1933.89,2715,10544,7829
1158,593.06,16861.7,1935.3,2871,11225,8354
1159,593.11,16860.29,1936.7,2404,10401,7997
1160,593.16,16858.89,1938.11,2854,10845,7991
1161,593.21,16857.48,1939.51,2714,10852,8138
1162,593.26,16856.08,1940.91,3423,11576,8153
1163,593.31,16854.67,1942.32,2771,11196,8425
1164,593.36,16853.27,1943.72,5698,14019,8321
1165,593.41,16851.87,1945.12,4097,12139,8042
1166,593.46,16850.47,1946.53,2952,11224,8272
1167,593.5,16849.06,1947.93,2581,10760,8179
1168,593.55,16847.66,1949.33,2749,10880,8131
1169,593.6,16846.26,1950.73,2702,10954,8252
1170,593.65,16844.86,1952.13,2962,11044,8082
1171,593.7,16843.46,1953.53,3514,11555,8041
1172,593.75,16842.06,1954.93,2863,10694,7831
1173,593.8,16840.66,1956.33,2972,11231,8259
1174,593.85,16839.26,1957.73,2986,10871,7885
1175,593.9,16837.86,1959.13,2867,10989,8122
1176,593.95,16836.46,1960.53,3010,11161,8151
1177,594,16835.07,1961.93,3084,11084,8000
1178,594.05,16833.67,1963.32,2749,10832,8083
1179,594.1,16832.27,1964.72,2642,10788,8146
1180,594.15,16830.88,1966.12,3570,11741,8171
1181,594.2,16829.48,1967.51,2561,10787,8226
1182,594.24,16828.08,1968.91,2657,10706,8049
1183,594.29,16826.69,1970.3,2684,10925,8241
1184,594.34,16825.29,1971.7,2379,10529,8150
1185,594.39,16823.9,1973.09,2972,11075,8103
1186,594.44,16822.51,1974.49,2838,10932,8094
1187,594.49,16821.11,1975.88,2378,10592,8214
1188,594.54,16819.72,1977.27,2392,10585,8193
1189,594.59,16818.33,1978.67,2647,10901,8254
1190,594.64,16816.93,1980.06,2609,10773,8164
1191,594.69,16815.54,1981.45,2792,10841,8049
1192,594.74,16814.15,1982.84,2820,10971,8151
1193,594.79,16812.76,1984.23,3099,11312,8213
1194,594.84,16811.37,1985.62,2353,10565,8212
1195,594.88,16809.98,1987.01,2939,10882,7943
1196,594.93,16808.59,1988.4,2604,11023,8419
1197,594.98,16807.2,1989.79,2783,10905,8122
1198,595.03,16805.81,1991.18,2636,10885,8249
1199,595.08,16804.42,1992.57,2985,11100,8115
1200,595.13,16803.03,1993.96,2477,10699,8222
1201,595.18,16801.65,1995.35,3407,11602,8195
1202,595.23,16800.26,1996.73,2400,10633,8233
1203,595.28,16798.87,1998.12,3002,10990,7988
1204,595.33,16797.49,1999.51,2706,10883,8177
1205,595.38,16796.1,2000.89,2873,11108,8235
1206,595.43,16794.72,2002.28,2653,10907,8254
1207,595.47,16793.33,2003.66,2959,11078,8119
1208,595.52,16791.95,2005.05,2644,10826,8182
1209,595.57,16790.56,2006.43,2905,11222,8317
1210,595.62,16789.18,2007.82,3104,11410,8306
1211,595.67,16787.79,2009.2,3155,11380,8225
1212,595.72,16786.41,2010.58,2740,10918,8178
1213,595.77,16785.03,2011.96,3216,11343,8127
1214,595.82,16783.65,2013.35,2815,11231,8416
1215,595.87,16782.26,2014.73,2837,10835,7998
1216,595.92,16780.88,2016.11,2590,10356,7766
1217,595.97,16779.5,2017.49,3050,11102,8052
1218,596.01,16778.12,2018.87,2727,10722,7995
1219,596.06,16776.74,2020.25,2756,10536,7780
1220,596.11,16775.36,2021.63,2216,10476,8260
1221,596.16,16773.98,2023.01,2790,10881,8091
1222,596.21,16772.6,2024.39,3003,10820,7817
1223,596.26,16771.23,2025.77,2816,10877,8061
1224,596.31,16769.85,2027.15,3188,11119,7931
1225,596.36,16768.47,2028.52,2616,10634,8018
1226,596.41,16767.09,2029.9,2740,10934,8194
1227,596.46,16765.72,2031.28,2745,10832,8087
1228,596.5,16764.34,2032.65,2859,10974,8115
1229,596.55,16762.96,2034.03,3083,11361,8278
1230,596.6,16761.59,2035.4,2854,10846,7992
1231,596.65,16760.21,2036.78,2731,11022,8291
1232,596.7,16758.84,2038.15,2925,10975,8050
1233,596.75,16757.46,2039.53,3119,11186,8067
1234,596.8,16756.09,2040.9,3624,12007,8383
1235,596.85,16754.72,2042.28,3492,11879,8387
1236,596.9,16753.34,2043.65,2755,10897,8142
1237,596.94,16751.97,2045.02,2792,10912,8120
1238,596.99,16750.6,2046.39,3127,11400,8273
1239,597.04,16749.23,2047.76,3256,11448,8192
1240,597.09,16747.86,2049.14,3156,11142,7986
1241,597.14,16746.49,2050.51,2851,10816,7965
1242,597.19,16745.12,2051.88,2669,10680,8011
1243,597.24,16743.75,2053.25,3415,11762,8347
1244,597.29,16742.38,2054.62,3008,11048,8040
1245,597.34,16741.01,2055.99,2190,10176,7986
1246,597.38,16739.64,2057.35,2234,10430,8196
1247,597.43,16738.27,2058.72,3010,10936,7926
1248,597.48,16736.9,2060.09,2768,10886,8118
1249,597.53,16735.53,2061.46,2951,11161,8210
1250,597.58,16734.17,2062.83,2374,10377,8003
1251,597.63,16732.8,2064.19,2841,10918,8077
1252,597.68,16731.43,2065.56,3009,11224,8215
1253,597.73,16730.07,2066.92,2897,10817,7920
1254,597.77,16728.7,2068.29,2811,10745,7934
1255,597.82,16727.34,2069.65,3365,11018,7653
1256,597.87,16725.97,2071.02,2627,10656,8029
1257,597.92,16724.61,2072.38,2955,10820,7865
1258,597.97,16723.25,2073.75,3375,11507,8132
1259,598.02,16721.88,2075.11,2578,10610,8032
1260,598.07,16720.52,2076.47,2893,10726,7833
1261,598.12,16719.16,2077.84,2649,10830,8181
1262,598.17,16717.79,2079.2,3036,10878,7842
1263,598.21,16716.43,2080.56,3079,11387,8308
1264,598.26,16715.07,2081.92,2594,10604,8010
1265,598.31,16713.71,2083.28,2849,10762,7913
1266,598.36,16712.35,2084.64,2911,10809,7898
1267,598.41,16710.99,2086,2403,10606,8203
1268,598.46,16709.63,2087.36,2580,10352,7772
1269,598.51,16708.27,2088.72,3035,10998,7963
1270,598.55,16706.91,2090.08,3572,11548,7976
1271,598.6,16705.55,2091.44,2997,11063,8066
1272,598.65,16704.2,2092.8,3606,11641,8035
1273,598.7,16702.84,2094.15,2846,10887,8041
1274,598.75,16701.48,2095.51,3326,11263,7937
1275,598.8,16700.12,2096.87,2582,10633,8051
1276,598.85,16698.77,2098.22,2888,10977,8089
1277,598.9,16697.41,2099.58,2864,11026,8162
1278,598.94,16696.06,2100.94,2706,10649,7943
1279,598.99,16694.7,2102.29,2655,10793,8138
1280,599.04,16693.35,2103.64,3381,11098,7717
1281,599.09,16691.99,2105,3792,11938,8146
1282,599.14,16690.64,2106.35,3371,11372,8001
1283,599.19,16689.29,2107.71,2406,10350,7944
1284,599.24,16687.93,2109.06,3008,11044,8036
1285,599.28,16686.58,2110.41,3696,11892,8196
1286,599.33,16685.23,2111.76,2826,10890,8064
1287,599.38,16683.88,2113.12,2906,10796,7890
1288,599.43,16682.53,2114.47,5002,13032,8030
1289,599.48,16681.17,2115.82,2294,10213,7919
1290,599.53,16679.82,2117.17,2724,10677,7953
1291,599.58,16678.47,2118.52,3072,11279,8207
1292,599.62,16677.12,2119.87,2448,10534,8086
1293,599.67,16675.78,2121.22,2927,10952,8025
1294,599.72,16674.43,2122.57,3067,11052,7985
1295,599.77,16673.08,2123.91,2759,10760,8001
1296,599.82,16671.73,2125.26,2397,10270,7873
1297,599.87,16670.38,2126.61,3239,11277,8038
1298,599.91,16669.04,2127.96,2551,10405,7854
1299,599.96,16667.69,2129.3,2704,10727,8023
1300,600.01,16666.34,2130.65,3417,11168,7751
1301,600.06,16665,2132,3222,11186,7964
1302,600.11,16663.65,2133.34,2763,10879,8116
1303,600.16,16662.31,2134.69,2868,10843,7975
1304,600.21,16660.96,2136.03,2783,10734,7951
1305,600.25,16659.62,2137.38,2500,10422,7922
1306,600.3,16658.27,2138.72,3027,10914,7887
1307,600.35,16656.93,2140.06,2637,10751,8114
1308,600.4,16655.59,2141.41,3499,11417,7918
1309,600.45,16654.24,2142.75,2865,10742,7877
1310,600.5,16652.9,2144.09,2321,10002,7681
1311,600.54,16651.56,2145.43,2490,10313,7823
1312,600.59,16650.22,2146.77,2995,10912,7917
1313,600.64,16648.88,2148.11,2363,10223,7860
1314,600.69,16647.54,2149.46,3052,10652,7600
1315,600.74,16646.2,2150.8,2652,10642,7990
1316,600.79,16644.86,2152.14,3402,11229,7827
1317,600.83,16643.52,2153.47,2453,10293,7840
1318,600.88,16642.18,2154.81,2494,10375,7881
1319,600.93,16640.84,2156.15,3219,10966,7747
1320,600.98,16639.5,2157.49,2902,10699,7797
1321,601.03,16638.16,2158.83,3449,11367,7918
1322,601.08,16636.83,2160.16,3556,11404,7848
1323,601.12,16635.49,2161.5,2809,10611,7802
1324,601.17,16634.15,2162.84,2835,10522,7687
1325,601.22,16632.82,2164.17,3077,10714,7637
1326,601.27,16631.48,2165.51,2602,10246,7644
1327,601.32,16630.15,2166.85,2446,10262,7816
1328,601.37,16628.81,2168.18,2731,10709,7978
1329,601.41,16627.48,2169.51,2808,10551,7743
1330,601.46,16626.14,2170.85,2414,10372,7958
1331,601.51,16624.81,2172.18,2725,10376,7651
1332,601.56,16623.48,2173.52,2863,10720,7857
1333,601.61,16622.14,2174.85,2326,10240,7914
1334,601.66,16620.81,2176.18,2343,10170,7827
1335,601.7,16619.48,2177.51,4321,11971,7650
1336,601.75,16618.15,2178.84,2699,10362,7663
1337,601.8,16616.82,2180.17,3010,10807,7797
1338,601.85,16615.49,2181.51,3319,11106,7787
1339,601.9,16614.16,2182.84,3110,10503,7393
1340,601.94,16612.83,2184.17,2870,10766,7896
1341,601.99,16611.5,2185.49,2799,10867,8068
1342,602.04,16610.17,2186.82,2771,10499,7728
1343,602.09,16608.84,2188.15,2775,10372,7597
1344,602.14,16607.51,2189.48,3397,11062,7665
1345,602.19,16606.18,2190.81,2800,10641,7841
1346,602.23,16604.86,2192.14,2585,10273,7688
1347,602.28,16603.53,2193.46,2638,10497,7859
1348,602.33,16602.2,2194.79,3155,10763,7608
1349,602.38,16600.88,2196.12,2619,10432,7813
1350,602.43,16599.55,2197.44,2474,10231,7757
1351,602.47,16598.23,2198.77,3317,10782,7465
1352,602.52,16596.9,2200.09,2806,10397,7591
1353,602.57,16595.58,2201.42,2902,10411,7509
1354,602.62,16594.25,2202.74,3070,10532,7462
1355,602.67,16592.93,2204.06,3304,11185,7881
1356,602.71,16591.6,2205.39,2745,10379,7634
1357,602.76,16590.28,2206.71,3222,10735,7513
1358,602.81,16588.96,2208.03,3765,11442,7677
1359,602.86,16587.64,2209.36,2712,10651,7939
1360,602.91,16586.32,2210.68,2492,10368,7876
1361,602.95,16584.99,2212,2929,10512,7583
1362,603,16583.67,2213.32,2325,9939,7614
1363,603.05,16582.35,2214.64,2722,10254,7532
1364,603.1,16581.03,2215.96,2226,9660,7434
1365,603.15,16579.71,2217.28,2603,10151,7548
1366,603.19,16578.39,2218.6,2493,10106,7613
1367,603.24,16577.08,2219.92,2860,10464,7604
1368,603.29,16575.76,2221.24,2818,10475,7657
1369,603.34,16574.44,2222.55,2679,10181,7502
1370,603.39,16573.12,2223.87,2535,9969,7434
1371,603.43,16571.8,2225.19,3380,11084,7704
1372,603.48,16570.49,2226.51,2511,10179,7668
1373,603.53,16569.17,2227.82,4254,11676,7422
1374,603.58,16567.85,2229.14,2402,10104,7702
1375,603.63,16566.54,2230.45,2445,9983,7538
1376,603.67,16565.22,2231.77,2782,10338,7556
1377,603.72,16563.91,2233.08,2639,10185,7546
1378,603.77,16562.59,2234.4,2816,10365,7549
1379,603.82,16561.28,2235.71,3056,10559,7503
1380,603.87,16559.97,2237.03,2635,10296,7661
1381,603.91,16558.65,2238.34,2556,10165,7609
1382,603.96,16557.34,2239.65,3132,10682,7550
1383,604.01,16556.03,2240.96,2959,10478,7519
1384,604.06,16554.72,2242.28,3217,10528,7311
1385,604.11,16553.41,2243.59,2456,9904,7448
1386,604.15,16552.09,2244.9,2872,10276,7404
1387,604.2,16550.78,2246.21,3001,10545,7544
1388,604.25,16549.47,2247.52,2783,10422,7639
1389,604.3,16548.16,2248.83,3110,10838,7728
1390,604.34,16546.85,2250.14,3038,10347,7309
1391,604.39,16545.55,2251.45,2616,10097,7481
1392,604.44,16544.24,2252.76,3362,10982,7620
1393,604.49,16542.93,2254.06,2711,10280,7569
1394,604.54,16541.62,2255.37,2542,10006,7464
1395,604.58,16540.31,2256.68,3544,11033,7489
1396,604.63,16539.01,2257.99,2492,9813,7321
1397,604.68,16537.7,2259.29,2805,10385,7580
1398,604.73,16536.39,2260.6,3159,10222,7063
1399,604.77,16535.09,2261.91,3135,10477,7342
1400,604.82,16533.78,2263.21,2551,9655,7104
1401,604.87,16532.48,2264.52,2347,9601,7254
1402,604.92,16531.17,2265.82,2902,10367,7465
1403,604.97,16529.87,2267.12,2637,10111,7474
1404,605.01,16528.56,2268.43,2869,10154,7285
1405,605.06,16527.26,2269.73,2518,9712,7194
1406,605.11,16525.96,2271.03,2640,10100,7460
1407,605.16,16524.65,2272.34,2555,10089,7534
1408,605.2,16523.35,2273.64,2312,9650,7338
1409,605.25,16522.05,2274.94,2582,9812,7230
1410,605.3,16520.75,2276.24,2644,9844,7200
1411,605.35,16519.45,2277.54,2203,9747,7544
1412,605.39,16518.15,2278.84,3193,10603,7410
1413,605.44,16516.85,2280.14,2493,9908,7415
1414,605.49,16515.55,2281.44,2986,10318,7332
1415,605.54,16514.25,2282.74,2624,9980,7356
1416,605.59,16512.95,2284.04,2746,10408,7662
1417,605.63,16511.65,2285.34,2574,9964,7390
1418,605.68,16510.35,2286.64,2305,9766,7461
1419,605.73,16509.06,2287.94,2865,10338,7473
1420,605.78,16507.76,2289.23,3344,10795,7451
1421,605.82,16506.46,2290.53,2556,10238,7682
1422,605.87,16505.16,2291.83,2602,10005,7403
1423,605.92,16503.87,2293.12,2454,9818,7364
1424,605.97,16502.57,2294.42,2637,10128,7491
1425,606.01,16501.28,2295.72,2852,10234,7382
1426,606.06,16499.98,2297.01,3223,10629,7406
1427,606.11,16498.69,2298.3,2958,10199,7241
1428,606.16,16497.39,2299.6,2563,9984,7421
1429,606.2,16496.1,2300.89,2713,9745,7032
1430,606.25,16494.81,2302.19,2433,9711,7278
1431,606.3,16493.51,2303.48,2776,9817,7041
1432,606.35,16492.22,2304.77,3195,10160,6965
1433,606.39,16490.93,2306.06,2593,9672,7079
1434,606.44,16489.64,2307.35,2848,10047,7199
1435,606.49,16488.35,2308.65,2714,9835,7121
1436,606.54,16487.06,2309.94,2471,9466,6995
1437,606.58,16485.76,2311.23,2879,9778,6899
1438,606.63,16484.47,2312.52,2863,9694,6831
1439,606.68,16483.19,2313.81,2539,9408,6869
1440,606.73,16481.9,2315.1,2906,9683,6777
1441,606.77,16480.61,2316.39,2997,9540,6543
1442,606.82,16479.32,2317.67,2933,9632,6699
1443,606.87,16478.03,2318.96,2867,9526,6659
1444,606.92,16476.74,2320.25,2764,9562,6798
1445,606.96,16475.46,2321.54,2612,9250,6638
1446,607.01,16474.17,2322.82,2890,9600,6710
1447,607.06,16472.88,2324.11,2895,9714,6819
1448,607.11,16471.6,2325.4,2721,9796,7075
1449,607.15,16470.31,2326.68,2407,9520,7113
1450,607.2,16469.03,2327.97,2667,10394,7727
1451,607.25,16467.74,2329.25,2481,10688,8207
1452,607.3,16466.46,2330.54,2990,11335,8345
1453,607.34,16465.17,2331.82,2832,10230,7398
1454,607.39,16463.89,2333.1,3096,9709,6613
1455,607.44,16462.6,2334.39,2785,9260,6475
1456,607.48,16461.32,2335.67,3147,9600,6453
1457,607.53,16460.04,2336.95,3038,9357,6319
1458,607.58,16458.76,2338.24,2524,8982,6458
1459,607.63,16457.48,2339.52,3448,10113,6665
1460,607.67,16456.19,2340.8,2231,8582,6351
1461,607.72,16454.91,2342.08,2898,9097,6199
1462,607.77,16453.63,2343.36,2506,8982,6476
1463,607.82,16452.35,2344.64,2634,9043,6409
1464,607.86,16451.07,2345.92,2771,9070,6299
1465,607.91,16449.79,2347.2,2979,9317,6338
1466,607.96,16448.52,2348.48,3021,9488,6467
1467,608,16447.24,2349.76,2582,8865,6283
1468,608.05,16445.96,2351.03,2647,8917,6270
1469,608.1,16444.68,2352.31,2782,8971,6189
1470,608.15,16443.4,2353.59,2581,8633,6052
1471,608.19,16442.13,2354.87,2876,9171,6295
1472,608.24,16440.85,2356.14,3216,9416,6200
1473,608.29,16439.57,2357.42,3067,9398,6331
1474,608.34,16438.3,2358.69,2908,9216,6308
1475,608.38,16437.02,2359.97,2300,8597,6297
1476,608.43,16435.75,2361.24,2860,9106,6246
1477,608.48,16434.47,2362.52,2862,9256,6394
1478,608.52,16433.2,2363.79,2639,8969,6330
1479,608.57,16431.93,2365.07,2741,9204,6463
1480,608.62,16430.65,2366.34,2731,9199,6468
1481,608.67,16429.38,2367.61,3807,10311,6504
1482,608.71,16428.11,2368.88,3071,9615,6544
1483,608.76,16426.84,2370.16,2293,8550,6257
1484,608.81,16425.56,2371.43,2928,9629,6701
1485,608.85,16424.29,2372.7,2895,9196,6301
1486,608.9,16423.02,2373.97,3133,9596,6463
1487,608.95,16421.75,2375.24,2907,9177,6270
1488,609,16420.48,2376.51,2918,9251,6333
1489,609.04,16419.21,2377.78,2671,8882,6211
1490,609.09,16417.94,2379.05,2613,8887,6274
1491,609.14,16416.67,2380.32,2802,9155,6353
1492,609.18,16415.4,2381.59,2754,9004,6250
1493,609.23,16414.14,2382.86,3544,10008,6464
1494,609.28,16412.87,2384.12,2871,9413,6542
1495,609.33,16411.6,2385.39,2815,9414,6599
1496,609.37,16410.33,2386.66,3437,9751,6314
1497,609.42,16409.07,2387.92,2932,9231,6299
1498,609.47,16407.8,2389.19,2754,9060,6306
1499,609.51,16406.54,2390.46,2612,9042,6430
1500,609.56,16405.27,2391.72,2762,9199,6437
1501,609.61,16404.01,2392.99,3031,9454,6423
1502,609.65,16402.74,2394.25,2571,8915,6344
1503,609.7,16401.48,2395.51,2509,8946,6437
1504,609.75,16400.21,2396.78,2741,9217,6476
1505,609.8,16398.95,2398.04,2689,9002,6313
1506,609.84,16397.69,2399.3,2565,8926,6361
1507,609.89,16396.43,2400.57,2984,9508,6524
1508,609.94,16395.16,2401.83,2655,8989,6334
1509,609.98,16393.9,2403.09,2657,8967,6310
1510,610.03,16392.64,2404.35,3894,10284,6390
1511,610.08,16391.38,2405.61,2834,9300,6466
1512,610.12,16390.12,2406.87,2661,9127,6466
1513,610.17,16388.86,2408.13,2859,9279,6420
1514,610.22,16387.6,2409.39,2714,8980,6266
1515,610.26,16386.34,2410.65,2783,9331,6548
1516,610.31,16385.08,2411.91,2993,9413,6420
1517,610.36,16383.82,2413.17,2326,8626,6300
1518,610.41,16382.56,2414.43,3038,9504,6466
1519,610.45,16381.31,2415.69,2474,8694,6220
1520,610.5,16380.05,2416.94,3510,9860,6350
1521,610.55,16378.79,2418.2,2907,9300,6393
1522,610.59,16377.53,2419.46,2696,9139,6443
1523,610.64,16376.28,2420.71,2440,9015,6575
1524,610.69,16375.02,2421.97,3137,9385,6248
1525,610.73,16373.77,2423.22,2668,8759,6091
1526,610.78,16372.51,2424.48,2729,9146,6417
1527,610.83,16371.26,2425.73,3130,9726,6596
1528,610.87,16370,2426.99,2762,9283,6521
1529,610.92,16368.75,2428.24,2706,9248,6542
1530,610.97,16367.5,2429.5,2843,9165,6322
1531,611.01,16366.24,2430.75,2705,9005,6300
1532,611.06,16364.99,2432,3175,9698,6523
1533,611.11,16363.74,2433.25,2632,9198,6566
1534,611.15,16362.49,2434.51,3126,9501,6375
1535,611.2,16361.24,2435.76,4143,10812,6669
1536,611.25,16359.98,2437.01,3042,9666,6624
1537,611.29,16358.73,2438.26,2987,9698,6711
1538,611.34,16357.48,2439.51,4047,10578,6531
1539,611.39,16356.23,2440.76,2603,9234,6631
1540,611.43,16354.98,2442.01,2412,8940,6528
1541,611.48,16353.74,2443.26,3028,9477,6449
1542,611.53,16352.49,2444.51,2663,9115,6452
1543,611.57,16351.24,2445.75,2919,9284,6365
1544,611.62,16349.99,2447,3266,9968,6702
1545,611.67,16348.74,2448.25,3006,9453,6447
1546,611.71,16347.5,2449.5,2379,8962,6583
1547,611.76,16346.25,2450.74,2671,9234,6563
1548,611.81,16345,2451.99,2721,9161,6440
1549,611.85,16343.76,2453.24,3117,9638,6521
1550,611.9,16342.51,2454.48,3125,9361,6236
1551,611.95,16341.27,2455.73,2638,9204,6566
1552,611.99,16340.02,2456.97,3119,9831,6712
1553,612.04,16338.78,2458.22,2497,8908,6411
1554,612.09,16337.53,2459.46,3339,9783,6444
1555,612.13,16336.29,2460.7,2751,9312,6561
1556,612.18,16335.05,2461.95,2394,8708,6314
1557,612.23,16333.8,2463.19,2957,9375,6418
1558,612.27,16332.56,2464.43,2359,8840,6481
1559,612.32,16331.32,2465.67,3264,9852,6588
1560,612.37,16330.08,2466.92,2829,9292,6463
1561,612.41,16328.84,2468.16,2911,9379,6468
1562,612.46,16327.6,2469.4,3400,9796,6396
1563,612.51,16326.35,2470.64,2674,8947,6273
1564,612.55,16325.11,2471.88,2650,9043,6393
1565,612.6,16323.88,2473.12,3182,9648,6466
1566,612.65,16322.64,2474.36,2590,8959,6369
1567,612.69,16321.4,2475.6,3202,9619,6417
1568,612.74,16320.16,2476.83,2582,9026,6444
1569,612.79,16318.92,2478.07,2969,9368,6399
1570,612.83,16317.68,2479.31,2796,9226,6430
1571,612.88,16316.45,2480.55,3228,9610,6382
1572,612.93,16315.21,2481.78,2527,8786,6259
1573,612.97,16313.97,2483.02,2431,8904,6473
1574,613.02,16312.74,2484.26,2782,9254,6472
1575,613.06,16311.5,2485.49,2816,9099,6283
1576,613.11,16310.27,2486.73,3264,9897,6633
1577,613.16,16309.03,2487.96,10487,16968,6481
1578,613.2,16307.8,2489.2,2698,9032,6334
1579,613.25,16306.56,2490.43,2863,9300,6437
1580,613.3,16305.33,2491.66,2785,9249,6464
1581,613.34,16304.09,2492.9,2677,9067,6390
1582,613.39,16302.86,2494.13,2842,9193,6351
1583,613.44,16301.63,2495.36,2984,9374,6390
1584,613.48,16300.4,2496.6,3025,9474,6449
1585,613.53,16299.16,2497.83,2411,8907,6496
1586,613.57,16297.93,2499.06,3106,9610,6504
1587,613.62,16296.7,2500.29,2494,9166,6672
